<DTYYYYMMDD>,<OPEN>,<HIGH>,<LOW>,<CLOSE>,<VOL>
20010327,1674.59,1675,1675,1674.59,200
20010328,1674.98,1675,1675,1674.98,1400
20010418,1676.34,1676,1676,1676.34,100
20010430,1676.34,1676,1676,1676.34,895
20010506,1676.34,1676,1676,1676.34,1500
20010508,1676.14,1676,1676,1676.14,200
20010513,1675.75,1676,1592,1675.75,2400
20010515,1592.64,1593,1593,1592.64,550
20010516,1592.64,1593,1593,1592.83,750
20010520,1672.45,1672,1672,1672.45,3600
20010521,1675.37,1675,1675,1675.37,400
20010528,1759.07,1759,1759,1759.07,1200
20010529,1802.96,1803,1803,1802.96,5000
20010530,1802.96,1803,1803,1802.96,900
20010602,1795.96,1796,1796,1795.96,300
20010603,1795.96,1796,1796,1795.96,500
20010611,1795.96,1796,1796,1795.96,609
20010709,1796.35,1796,1796,1796.35,110
20010714,1806.06,1806,1806,1806.06,150
20010721,1806.06,1806,1806,1806.06,100
20010722,1806.06,1816,1806,1815.77,3500
20010730,1906.46,1906,1906,1906.46,1780
20010731,1906.46,1906,1906,1906.46,1109
20010801,1906.46,1907,1906,1907.44,26170
20010804,1907.63,1908,1908,1907.63,500
20010808,1907.44,1907,1907,1907.44,600
20010828,1907.44,1907,1907,1907.44,1200
20010902,1907.44,1942,1907,1942.00,4400
20011007,873.90,874,874,873.90,1000
20011022,895.65,896,896,895.65,1000
20011023,917.98,918,918,917.98,2400
20011118,940.90,941,941,940.90,500
20011121,964.40,964,964,964.40,3000
20011124,965.18,965,965,965.18,3000
20011126,989.26,989,989,989.26,1020
20011205,1013.92,1014,1014,1013.92,1380
20011208,1024.02,1024,1024,1024.02,3000
20011218,1034.12,1034,1034,1034.12,400
20011225,1044.41,1044,1044,1044.41,400
20020105,1054.70,1055,1055,1054.70,530
20020112,1065.19,1065,1055,1054.70,530
20020113,1065.19,1065,1065,1065.19,1580
20020312,776.80,777,777,776.80,500
20020610,784.57,785,785,784.57,500
20020624,792.34,792,792,792.34,200
20020626,812.15,812,812,812.15,3460
20020707,832.34,832,832,832.34,400
20020709,853.12,853,853,853.12,400
20020727,975.27,1068,975,1068.30,1400
20020807,1475.92,1476,1476,1475.92,500
20020910,1549.72,1550,1550,1549.72,2000
20020911,1627.20,1627,1627,1627.20,5000
20020914,1627.20,1627,1627,1627.20,1000
20020915,1627.20,1627,1627,1627.20,595
20020917,1625.46,1651,1625,1650.70,8265
20021027,1649.73,1650,1650,1649.73,3000
20021028,1650.31,1650,1650,1650.31,1000
20021029,1650.31,1651,1650,1650.51,6726
20021102,1650.51,1651,1651,1650.70,10300
20021111,1733.24,1733,1733,1733.24,1000
20021112,1819.85,1820,1820,1819.85,1020
20021116,1910.54,1911,1911,1910.54,8000
20021117,1910.74,1911,1911,1910.74,1600
20021211,1815.38,1815,1815,1815.38,530
20030104,1724.69,1725,1725,1724.69,1448
20030106,1724.50,1724,1724,1724.50,2752
20030111,1724.30,1724,1724,1724.50,768
20030112,1728.38,1728,1728,1728.38,1000
20030201,1689.54,1690,1690,1689.54,1000
20030317,1649.93,1650,1650,1649.93,500
20030319,1649.73,1650,1650,1649.93,1130
20030531,1649.93,1650,1650,1649.93,107
20030629,1631.28,1631,1631,1631.28,500
20030824,1262.30,1262,1262,1262.30,1000
20030825,1223.46,1223,1204,1213.75,1000
20030831,1215.69,1216,1214,1213.75,600
20030901,1204.04,1204,1165,1179.77,2000
20030906,1179.77,1180,1180,1179.77,1000
20030915,1238.61,1239,1180,1179.77,110
20030917,1145.78,1168,1122,1168.31,1310
20030921,1116.65,1155,1113,1155.30,1310
20030922,1110.83,1144,1105,1143.65,1310
20031027,1143.65,1144,1144,1143.65,1950
20031112,1107.14,1144,1107,1133.35,2015360
20031118,1091.41,1122,1088,1121.90,1410
20031201,1087.52,1117,1086,1117.43,700
20040127,1117.43,1117,1117,1117.43,441000
20040128,1117.43,1117,1117,1117.43,441500
20040131,1108.50,1116,1108,1116.46,498
20040203,1126.36,1126,1117,1117.23,510
20040208,1127.14,1128,1127,1127.14,16995
20040215,1126.36,1126,1126,1126.36,64463
20040229,1165.20,1165,1165,1165.20,5900
20040428,679.90,680,680,679.90,1000
20040501,699.12,709,687,687.27,2210
20040502,712.72,719,695,695.04,2010
20040509,708.83,709,709,708.83,15626
20040511,708.83,719,709,709.03,129010
20040605,744.37,744,717,717.18,1710
20040821,504.92,505,505,504.92,1000
20040822,479.67,505,480,504.92,400000
20040823,479.67,505,480,504.92,401000
20040824,479.67,480,480,479.67,80000
20040828,503.56,504,480,480.84,20010
20040920,504.73,505,491,490.55,5010
20040922,515.02,515,501,501.43,5410
20040927,526.48,526,526,526.48,66200
20041004,552.69,553,537,537.16,5010
20041005,563.96,564,548,548.23,5010
20041006,575.61,576,559,559.49,5010
20041009,587.46,587,571,570.95,5010
20041010,599.50,599,599,599.50,20998
20050109,417.92,418,418,417.92,1000
20050110,418.31,439,418,418.31,420
20050112,439.09,439,419,418.70,412
20050115,439.48,439,419,419.08,410
20050116,439.86,440,419,419.47,410
20050117,440.45,440,420,419.86,410
20050123,440.83,441,420,420.25,410
20050124,441.22,441,421,420.64,410
20050126,441.61,442,421,421.03,410
20050130,442.00,442,442,442.00,47000
20050131,463.94,464,464,463.94,20000
20050201,487.05,487,484,484.14,14114
20050202,508.22,508,485,484.72,410
20050205,508.80,509,509,508.80,20400
20050216,361.21,482,361,462.20,77718
20050221,462.20,462,462,462.20,7000
20050226,441.03,444,441,443.94,18177
20050227,436.95,444,437,442.19,14310
20050305,436.95,442,437,442.00,531
20050306,441.61,464,442,450.16,47112
20050307,464.14,464,450,450.35,461
20050309,464.14,464,451,450.54,389
20050312,456.37,456,452,451.90,5010
20050313,450.54,457,449,454.23,44910
20050314,448.80,453,449,452.68,5150
20050315,454.43,454,454,454.04,18453
20050412,476.57,477,454,454.43,510
20050413,476.57,477,455,454.82,410
20050418,477.54,478,477,477.34,21010
20050420,501.04,501,477,477.34,60
20050423,501.04,501,478,478.12,840
20050424,502.01,502,501,500.65,20010
20050501,525.51,526,503,502.78,1900
20050502,527.84,528,526,526.48,20010
20050503,552.69,553,547,547.26,16757
20050504,574.44,574,573,572.89,20010
20050507,601.44,601,592,595.81,25008
20050508,625.52,626,624,623.58,20020
20050509,654.65,655,655,654.65,65713
20050510,635.03,687,622,669.60,71666
20050511,669.60,670,670,669.60,576
20050827,485.50,776,486,770.59,395010
20050830,732.14,765,732,764.76,3145
20050903,726.70,764,727,763.98,360
20050904,725.92,763,726,763.40,310
20050905,725.34,763,725,762.82,310
20050906,724.76,762,725,762.24,260
20050907,724.17,762,724,761.65,310
20050912,723.59,762,724,761.65,260
20050913,723.59,761,724,761.07,260
20050914,723.20,761,723,761.07,260
20050917,723.20,760,723,760.49,260
20050918,722.62,760,723,760.10,210
20050919,722.23,760,722,759.71,210
20050921,721.84,760,722,759.71,210
20050924,721.84,759,722,759.32,210
20050925,721.45,759,721,758.93,210
20050926,721.07,759,721,758.55,210
20050927,720.68,758,721,758.16,210
20050928,720.29,758,720,757.77,210
20051001,719.90,758,720,757.77,210
20051002,719.90,757,720,757.38,210
20051003,719.71,757,720,756.99,210
20051004,719.32,757,719,756.60,210
20051005,718.93,756,719,756.22,210
20051009,718.54,756,719,755.83,210
20051010,718.15,755,718,755.44,210
20051011,717.76,755,718,755.05,210
20051012,717.38,755,717,754.66,210
20051015,716.99,754,717,754.27,210
20051016,716.60,754,717,753.89,210
20051017,716.21,753,716,753.50,210
20051018,715.82,753,716,753.11,210
20051019,715.63,753,716,752.72,210
20051022,715.24,752,715,752.33,210
20051023,714.85,752,715,751.94,210
20051024,714.46,752,714,751.56,210
20051026,714.07,752,714,751.56,160
20051029,714.07,750,714,749.61,1010
20051030,712.13,749,712,749.22,160
20051031,711.94,749,712,749.03,110
20051101,711.74,749,712,748.84,110
20051102,711.55,749,712,748.64,110
20051105,711.36,748,711,748.45,110
20051106,711.16,748,711,748.25,110
20051107,710.97,748,711,748.25,110
20051108,710.97,748,711,748.25,110
20051109,710.97,748,711,748.25,110
20051113,733.30,748,733,748.25,110
20051114,733.30,748,733,748.25,110
20051115,733.30,748,733,748.06,110
20051116,733.11,748,733,747.87,110
20051127,485.50,732,427,567.26,161286
20051129,595.61,596,577,576.77,7233
20051130,605.52,606,596,596.00,14187
20051203,596.00,596,596,596.00,7127
20051204,567.06,594,566,594.06,1336
20051206,594.25,594,594,594.06,1310
20051210,594.06,594,565,593.28,3100
20051211,563.76,591,564,591.34,1290
20051213,593.09,593,562,590.37,1710
20051217,590.17,590,590,590.17,5
20051218,589.59,590,590,589.79,2751
20051219,589.98,590,590,589.98,249
20051228,619.30,619,561,585.71,3020
20060102,585.71,586,586,585.71,3000
20060104,556.58,581,557,581.44,3010
20060107,552.50,552,552,552.50,21000
20060108,524.92,525,525,524.92,21000
20060109,498.71,499,499,498.71,50000
20060110,486.47,486,476,485.50,43260
20060114,462.20,462,461,461.61,21010
20060115,438.70,439,439,438.70,21000
20060116,417.72,422,418,422.19,16464
20060118,438.70,439,423,423.16,1327
20060123,415.59,416,412,414.04,20010
20060125,407.82,414,408,413.84,486
20060130,405.88,411,406,411.12,7010
20060212,392.48,411,392,410.93,160
20060318,402.77,411,403,410.54,710
20060328,402.38,410,402,410.15,710
20060409,418.31,418,410,410.35,594
20060415,418.50,419,410,410.35,60
20060417,418.50,419,411,410.54,520
20060418,418.50,419,419,418.50,72963
20060419,426.85,427,420,419.67,2960
20060423,428.02,428,421,420.83,3060
20060425,429.18,429,421,420.83,60
20060426,429.18,429,421,420.83,60
20060429,429.18,429,421,420.83,60
20060430,429.18,429,421,420.83,60
20060501,429.18,429,421,420.83,60
20060502,429.18,429,421,420.83,60
20060506,429.18,429,421,420.83,60
20060507,429.18,429,421,420.83,60
20060509,429.18,429,421,420.83,60
20060513,429.18,429,421,420.83,60
20060514,429.18,429,421,420.83,60
20060520,429.18,429,421,420.83,60
20060521,429.18,429,421,420.83,60
20060522,429.18,429,421,420.83,60
20060523,429.18,429,421,420.83,60
20060530,315.19,421,315,368.01,2010
20060531,375.19,375,368,368.01,460
20060603,375.19,375,368,368.20,610
20060607,375.39,375,368,368.20,460
20060614,375.39,375,368,368.20,60
20060626,375.39,375,368,368.20,60
20060628,375.39,375,368,368.20,60
20060703,375.39,375,375,375.39,22000
20060705,382.77,383,383,382.77,22500
20060708,390.34,390,385,384.52,5010
20060709,392.09,392,392,392.09,25020
20060710,399.86,400,400,399.86,24000
20060711,407.82,408,408,407.82,40000
20060718,573.28,573,420,522.40,16710
20060719,532.69,533,523,522.59,470
20060725,532.89,533,523,522.59,260
20060726,532.89,533,527,527.45,10010
20060729,537.93,538,528,527.64,480
20060730,538.13,538,528,527.84,480
20060731,538.32,538,538,537.74,20010
20060805,548.42,548,548,548.42,21128
20060806,559.30,559,551,550.95,5010
20060807,561.82,562,562,561.82,21128
20060809,572.89,573,572,572.11,20010
20060812,583.38,583,581,581.05,17010
20060813,592.51,593,581,581.05,20
20060814,592.51,593,593,592.51,21128
20060815,604.35,604,593,602.02,50113
20060816,589.98,614,590,607.85,34428
20060819,596.78,620,597,608.24,6955
20060820,620.28,620,608,616.59,15861
20060821,615.03,629,614,619.69,9030
20060823,631.93,632,625,625.32,10010
20060826,637.75,638,638,637.56,21010
20060827,650.18,650,650,650.18,74953
20060828,650.77,651,650,650.18,16000
20060829,657.37,663,657,662.22,48410
20060830,675.43,675,675,675.23,20971
20060902,688.63,689,689,688.63,104138
20060903,702.23,702,702,702.03,21010
20060904,716.02,716,716,715.82,21010
20060905,730.00,730,730,730.00,67521
20060906,744.56,745,737,737.18,10490
20060910,751.75,752,751,750.58,19510
20060911,765.54,766,761,760.88,14764
20060912,776.02,776,776,775.83,21010
20060913,791.17,791,776,776.02,460
20061004,835.06,952,835,905.17,97918
20061007,923.23,923,923,923.23,21500
20061008,941.68,942,924,923.81,810
20061009,942.26,942,942,942.26,21245
20061010,961.10,961,961,961.10,23970
20061011,980.13,980,961,977.99,81699
20061014,997.41,997,995,994.89,18331
20061016,1014.70,1015,1015,1014.70,36980
20061017,1034.89,1035,1015,1015.08,410
20061021,1035.28,1035,1023,1022.85,8109
20061022,1043.24,1043,1042,1042.08,20010
20061023,1062.86,1063,1063,1062.86,21500
20061028,1084.03,1084,1075,1074.90,12010
20061029,1096.26,1096,1096,1096.26,21500
20061030,1118.01,1118,1107,1106.55,10020
20061031,1128.50,1128,1128,1128.50,43420
20061101,1151.03,1151,1150,1149.86,20110
20061104,1172.78,1173,1150,1150.05,210
20061105,1172.97,1173,1173,1172.97,21953
20061106,1196.27,1196,1196,1196.27,32500
20061107,1220.16,1220,1220,1220.16,32505
20061108,1244.44,1244,1232,1231.62,10055
20061111,1256.09,1256,1256,1256.09,25000
20061112,1281.14,1281,1257,1256.86,610
20061113,1281.92,1282,1263,1262.88,5010
20061114,1288.13,1288,1263,1263.08,210
20061115,1288.32,1288,1276,1275.70,10610
20061125,1602.15,1602,1447,1560.98,65129
20061126,1590.31,1590,1561,1560.98,20
20061127,1583.32,1583,1530,1548.36,29900
20061128,1517.48,1545,1517,1544.86,2454
20061129,1513.99,1535,1514,1534.57,7010
20061203,1503.89,1504,1504,1503.89,21807
20061204,1473.98,1494,1474,1493.98,7010
20061205,1464.27,1478,1464,1478.06,11273
20061206,1448.54,1458,1449,1457.67,14610
20061209,1428.54,1464,1429,1429.31,145292
20061210,1437.08,1458,1437,1440.19,8140
20061211,1437.08,1437,1411,1413.39,28795
20061212,1413.39,1442,1385,1393.78,33988
20061213,1393.78,1394,1366,1366.00,26042
20061216,1359.40,1366,1359,1366.00,107
20061217,1371.05,1371,1366,1366.20,510
20061218,1369.11,1369,1366,1366.39,1010
20061219,1393.58,1394,1370,1369.69,2620
20061220,1381.54,1397,1374,1373.58,5865
20061223,1373.58,1401,1374,1374.94,2037
20061224,1374.94,1375,1375,1374.94,2000
20061225,1373.58,1375,1374,1374.55,5740
20061226,1347.75,1354,1347,1354.16,16010
20061227,1327.16,1327,1327,1327.36,21010
20061230,1300.95,1317,1301,1317.07,8231
20070114,1343.28,1343,1324,1323.67,5345
20070115,1350.08,1350,1350,1350.08,25000
20070116,1377.07,1377,1340,1370.47,42522
20070117,1351.63,1352,1351,1351.63,47726
20070128,1359.01,1359,1358,1358.82,156930
20070204,1355.52,1358,1356,1358.43,2510
20070206,1356.29,1358,1356,1358.24,1510
20070207,1358.24,1358,1358,1358.24,1752
20070210,1356.29,1358,1356,1358.04,2410
20070213,1339.98,1357,1340,1356.88,1310
20070218,1347.75,1356,1348,1356.49,1010
20070219,1356.29,1356,1356,1356.29,6010
20070224,1359.40,1359,1359,1359.21,1900
20070307,1332.21,1357,1332,1356.68,2010
20070312,1329.69,1356,1330,1355.91,676
20070314,1328.91,1351,1329,1350.86,4010
20070317,1323.86,1338,1324,1338.04,10010
20070319,1320.37,1332,1320,1332.41,6740
20070328,1331.63,1332,1306,1319.79,13044
20070407,1297.26,1319,1297,1318.81,1010
20070410,1292.60,1318,1293,1318.23,510
20070417,1293.37,1318,1293,1317.84,307
20070424,1291.63,1301,1292,1296.29,17406
20070425,1270.46,1290,1270,1289.68,5427
20070428,1264.05,1286,1264,1286.38,2810
20070430,1260.75,1283,1261,1282.69,3124
20070502,1257.06,1278,1257,1278.03,3896
20070508,1252.59,1271,1253,1270.85,6010
20070509,1245.60,1265,1246,1264.83,5010
20070514,1239.58,1240,1240,1239.58,125604
20070516,1214.92,1239,1215,1239.39,210
20070521,1214.72,1238,1215,1237.64,1510
20070616,1244.44,1245,1215,1226.37,161838
20070617,1250.84,1251,1224,1246.18,107144
20070619,1246.18,1271,1246,1248.90,10376
20070620,1252.98,1253,1226,1246.77,6602
20070623,1242.69,1247,1243,1246.77,163
20070624,1241.91,1246,1242,1246.38,2010
20070625,1223.46,1223,1222,1221.52,98300
20070704,1140.34,1145,1140,1142.87,25010
20070707,1130.83,1162,1130,1140.93,45051
20070708,1163.65,1164,1142,1162.87,64840
20070709,1185.40,1186,1172,1172.39,8910
20070711,1195.69,1196,1175,1175.11,2510
20070714,1198.60,1199,1198,1197.63,20299
20070715,1219.58,1222,1202,1204.43,13810
20070716,1221.52,1222,1196,1204.82,16150
20070717,1184.62,1194,1181,1190.84,97337
20070718,1190.84,1191,1167,1168.89,76513
20070721,1168.89,1169,1146,1149.28,21010
20070722,1148.89,1172,1145,1164.62,136246
20070725,1187.73,1188,1168,1167.92,3010
20070730,1191.22,1191,1188,1189.87,20903
20070731,1213.56,1214,1214,1213.56,25249
20070801,1237.64,1238,1226,1225.60,10609
20070804,1250.07,1250,1233,1232.59,6010
20070805,1257.06,1257,1257,1257.06,72160
20070806,1257.06,1257,1243,1251.23,17378
20070807,1250.26,1276,1250,1262.88,39691
20070808,1288.13,1288,1288,1287.94,203083
20070812,1313.57,1314,1314,1313.57,40788
20070813,1339.79,1340,1330,1338.82,127684
20070814,1338.82,1365,1339,1362.90,25607
20070815,1390.09,1390,1363,1373.77,15986
20070818,1401.16,1401,1348,1374.16,4463
20070819,1374.16,1374,1347,1371.44,2722
20070820,1344.06,1344,1344,1344.06,22000
20070821,1317.26,1344,1317,1343.87,100
20070822,1317.07,1343,1317,1343.28,510
20070828,1316.48,1341,1316,1340.76,2010
20070903,1359.40,1359,1314,1315.71,112975
20070904,1341.92,1342,1342,1341.92,32000
20070905,1342.12,1342,1321,1329.69,28777
20070908,1320.56,1329,1321,1329.30,1010
20070909,1320.56,1329,1321,1328.52,1928
20070910,1320.56,1321,1302,1316.48,10355
20070911,1291.43,1306,1291,1306.39,10510
20070912,1291.43,1300,1280,1300.17,8030
20070915,1274.34,1294,1274,1293.76,5551
20070916,1268.32,1291,1268,1274.73,15983
20070917,1262.30,1270,1262,1270.26,7579
20070918,1262.30,1291,1262,1269.10,4155
20070919,1262.50,1282,1262,1268.71,1610
20070923,1262.30,1268,1262,1267.93,2588
20070924,1262.30,1264,1244,1264.44,5093
20070925,1261.72,1262,1243,1252.98,12931
20070926,1242.88,1253,1243,1252.79,510
20070929,1252.79,1253,1253,1252.79,4779
20071001,1227.73,1231,1228,1231.23,18406
20071002,1231.23,1237,1224,1232.40,21712
20071006,1233.95,1257,1234,1238.80,8559
20071007,1263.47,1263,1239,1241.13,2654
20071009,1265.80,1266,1245,1244.82,3210
20071010,1269.68,1270,1245,1245.02,110
20071014,1269.88,1270,1266,1268.90,32748
20071015,1243.85,1244,1244,1243.66,93399
20071017,1219.97,1237,1220,1236.67,6280
20071021,1242.88,1243,1223,1233.56,5267
20071022,1233.56,1234,1234,1233.56,2000
20071118,776.80,777,777,776.80,878
20071119,792.34,792,779,778.55,2366
20071124,794.09,794,794,794.09,50
20071125,809.82,810,810,809.82,174
20071126,825.93,826,826,825.93,80
20071128,842.44,842,842,842.44,100
20071201,859.14,859,859,859.14,100
20071202,876.23,876,876,876.23,150
20071203,893.71,894,894,893.71,6758
20071204,911.58,912,912,911.58,1019
20071210,929.64,930,930,929.64,1000
20071212,948.09,948,948,948.09,250
20071216,966.92,967,967,966.92,4500
20071219,986.15,986,986,986.15,20000
20071224,980.71,986,981,985.57,2010
20071226,967.12,1004,967,987.70,9999
20071230,1005.76,1006,988,987.90,210
20080101,1007.51,1008,994,993.53,6162
20080105,993.53,994,994,993.53,1955
20080106,1013.34,1013,994,993.92,1710
20080108,1013.73,1014,994,994.31,410
20080112,1014.11,1014,1005,1004.60,11010
20080113,1024.60,1025,1005,1004.99,410
20080114,1024.99,1025,1006,1005.57,565
20080115,1025.57,1026,1023,1022.66,17965
20080116,1025.38,1026,1024,1023.63,7710
20080120,1023.63,1024,1024,1023.63,1886
20080122,1003.82,1017,1004,1017.22,6777
20080123,997.02,1008,997,1007.71,10010
20080126,987.70,1003,988,1002.66,5424
20080128,982.65,1002,983,1002.07,670
20080202,993.53,1000,994,999.94,5466
20080204,980.13,993,980,993.33,7092
20080217,973.72,988,974,988.29,5415
20080223,988.29,988,988,988.29,1310000
20080224,1007.90,1008,1008,1007.71,1325010
20080225,1027.71,1028,1028,1027.71,21128
20080227,1048.10,1048,1037,1037.42,10010
20080301,1058.00,1058,1058,1058.00,43000
20080302,1078.98,1079,1079,1078.98,41000
20080303,1100.53,1101,1066,1100.34,275989
20080304,1087.52,1100,1088,1095.10,9247
20080305,1073.35,1079,1073,1078.59,16010
20080309,1073.35,1078,1060,1067.13,41421
20080310,1054.51,1067,1055,1066.55,1010
20080311,1045.96,1060,1046,1059.75,7010
20080312,1038.58,1050,1039,1049.65,10010
20080315,1028.68,1045,1029,1044.60,5010
20080316,1023.82,1032,1024,1031.79,13087
20080317,1011.20,1028,1011,1028.10,3812
20080329,1009.84,1020,1010,1019.55,10010
20080330,1000.13,1018,1000,1017.80,2010
20080406,1038.00,1038,998,1015.08,6979
20080407,995.28,1000,995,999.74,15963
20080408,1019.55,1020,1001,1001.10,1434
20080409,981.10,990,981,989.84,11895
20080421,1008.68,1009,970,1002.07,15510
20080423,1002.46,1022,1002,1003.24,6845
20080427,1023.24,1023,1021,1020.52,18180
20080428,1040.91,1041,1025,1024.79,4410
20080429,1045.19,1045,1033,1032.95,8496
20080505,1048.68,1049,1012,1030.43,4733
20080507,1051.01,1051,1038,1038.19,7967
20080511,1058.39,1069,1058,1068.10,25093
20080512,1100.14,1100,1088,1099.76,27010
20080514,1100.14,1129,1098,1107.33,16610
20080520,1165.20,1223,1111,1195.50,48040
20080521,1159.76,1195,1160,1195.50,343
20080524,1159.76,1184,1160,1160.35,25769
20080527,1136.07,1153,1126,1152.97,177740
20080528,1136.07,1136,1119,1135.29,11426
20080602,1136.07,1146,1136,1135.68,7729
20080609,1101.70,1106,1102,1106.36,18210
20080611,1073.35,1097,1073,1097.43,5672
20080625,1130.25,1130,1065,1106.36,6454
20080629,1073.35,1103,1073,1103.25,2010
20080630,1104.03,1104,1070,1091.60,8010
20080728,1142.87,1143,1143,1142.87,2000
20080913,1108.69,1141,1109,1141.32,1010
20080917,1107.14,1140,1107,1139.76,1010
20080920,1107.14,1138,1107,1138.21,1010
20080930,1104.22,1122,1104,1122.09,10010
20081006,1097.23,1122,1097,1121.51,440
20081007,1087.91,1120,1088,1119.56,1210
20081008,1086.16,1118,1086,1118.01,1010
20081012,1084.61,1118,1085,1117.82,110
20081013,1084.41,1118,1084,1117.62,110
20081015,1084.22,1116,1084,1116.07,1010
20081105,1082.67,1113,1083,1112.77,2081
20081203,1081.70,1113,1082,1112.77,20
20090309,1079.56,1080,1080,1112.38,300
20090310,1079.17,1080,1079,1079.17,25380
20090413,543.96,563,544,545.70,11000
20090415,562.02,562,562,546.09,500
20090419,562.40,562,562,546.48,500
20090421,562.79,563,563,546.48,100
20090428,562.79,563,563,562.79,100
20090429,579.49,579,579,579.49,100
20090503,596.78,597,597,596.78,50
20090504,614.64,615,615,614.64,150
20090506,632.90,633,633,632.90,100
20090510,651.74,652,652,651.74,50
20090512,671.16,671,671,671.16,21640
20090513,691.16,691,691,673.49,2500
20090516,693.68,694,694,693.68,31740
20090518,714.46,714,714,697.18,3580
20090519,717.96,718,718,717.96,29648
20090520,739.32,739,739,739.32,47290
20090523,761.46,761,761,744.95,5297
20090524,745.73,746,745,745.53,4777
20090525,745.53,746,746,745.53,143373
20090526,759.13,768,759,761.07,15213
20090531,757.38,757,757,757.38,2300
20090601,769.03,769,769,769.03,500
20090602,769.03,792,769,791.37,35563
20090603,815.06,815,815,815.06,27774
20090607,825.16,825,825,825.35,1500
20090617,582.60,607,563,601.44,36500
20090620,584.54,585,584,599.69,2274
20090621,602.02,602,593,599.50,5000
20090622,617.36,617,617,603.77,5000
20090628,621.83,622,622,605.32,1920
20090629,623.38,623,623,605.52,309
20090630,623.38,623,623,608.04,3000
20090701,594.45,626,594,609.98,4085
20090704,609.98,610,610,609.98,50
20090705,626.10,626,626,611.93,2475
20090811,611.93,613,612,612.31,10000
20090815,612.31,612,612,612.31,500
20090816,630.57,631,631,612.51,238
20090823,612.51,613,613,612.51,2500
20090829,621.44,631,621,616.59,7370
20090830,630.76,635,622,620.08,4843
20090831,622.22,622,622,620.66,6000
20090901,623.38,623,623,622.02,11252
20090905,639.11,639,639,622.22,296
20090906,639.11,641,639,640.86,21625
20090909,660.09,660,660,642.03,2500
20090922,661.25,661,661,643.39,3114
20090928,662.61,663,663,644.36,1942
20091005,663.58,664,664,663.58,366288
20091007,683.39,683,683,683.39,42256
20091010,703.78,704,704,703.78,45337
20091011,724.76,725,725,724.76,305629
20091012,746.31,746,746,746.31,137669
20091013,768.64,769,769,767.48,40000
20091017,790.40,790,790,790.40,42786
20091018,814.09,814,814,814.09,331191
20091019,814.09,838,814,818.55,19505
20091020,840.69,843,834,839.72,132745
20091025,814.67,815,815,814.86,42000
20091026,790.59,791,791,799.91,26010
20091027,776.02,777,776,776.22,69011
20091028,753.69,760,754,774.47,3600
20091031,797.58,798,798,785.35,20000
20091102,808.84,809,809,808.84,93000
20091103,813.70,833,810,826.13,40683
20091104,825.35,825,825,825.55,30870
20091107,850.40,850,850,825.74,336
20091108,825.35,825,825,825.35,38195
20091109,815.64,839,816,828.07,13428
20091110,840.89,857,841,854.68,91984
20091111,884.58,885,885,884.58,70345
20091114,915.27,915,880,907.89,55239
20091115,877.98,893,876,878.95,95480
20091116,880.70,903,880,884.19,13667
20091118,862.25,862,854,855.45,46720
20091121,835.06,835,835,853.12,5000
20091122,835.06,835,835,844.77,19455
20091123,853.90,854,854,844.97,1000
20091124,816.22,874,816,845.35,3000
20091129,821.47,823,821,834.67,19475
20091130,821.47,821,821,832.34,7393
20091205,817.58,818,818,831.95,1042
20091207,831.18,861,831,838.56,24967
20091212,838.56,839,839,838.56,10000
20091215,838.56,839,839,838.56,2000
20091220,867.88,868,868,840.30,2500
20100102,811.37,811,811,835.26,7500
20100106,835.06,835,835,835.26,3820
20100109,835.06,835,835,835.26,500
20100110,835.06,835,835,835.26,1000
20100113,815.64,864,816,841.08,104628
20100118,870.41,870,870,841.28,225
20100119,870.60,871,871,842.83,2266
20100120,872.15,872,872,843.41,926
20100123,872.93,873,873,844.38,1385
20100124,873.90,874,874,873.90,212912
20100125,895.26,895,874,876.43,55404
20100126,873.90,874,871,874.29,22156
20100127,873.90,903,874,892.16,29048
20100201,875.84,893,874,887.88,14970
20100202,873.90,874,871,884.19,10967
20100203,853.51,882,853,872.15,16600
20100207,844.97,845,845,870.41,2635
20100208,845.35,846,845,863.61,11465
20100209,846.32,846,846,861.86,4357
20100210,873.90,884,874,874.10,322021
20100214,874.29,874,874,874.10,30000
20100216,868.27,868,868,873.71,2240
20100217,843.22,876,843,872.93,21844
20100220,868.08,874,859,870.99,24160
20100221,873.71,876,874,873.90,64476
20100222,873.90,874,874,873.90,65642
20100223,873.90,876,874,873.90,158124
20100224,873.90,874,874,873.90,20506
20100228,873.51,874,874,873.90,26019
20100301,873.90,893,874,874.10,15582
20100303,874.10,874,874,873.90,35247
20100308,875.26,875,875,873.90,3000
20100309,903.03,904,903,883.61,13607
20100314,878.95,879,879,881.48,20100
20100315,878.95,880,879,881.48,20
20100316,879.92,880,879,880.70,14920
20100317,893.13,911,893,886.72,9509
20100327,917.60,918,918,887.11,524
20100329,879.73,880,880,886.72,1900
20100406,855.84,856,856,884.78,2576
20100407,853.90,854,854,858.17,36741
20100410,858.17,858,858,858.17,11367
20100411,835.45,835,835,857.59,1000
20100412,827.68,828,828,851.96,7910
20100413,835.06,835,826,851.37,1440
20100414,826.32,826,826,844.38,11530
20100419,845.16,845,815,839.53,53900
20100421,835.06,845,835,840.69,14260
20100425,854.29,854,854,840.69,146
20100427,838.75,839,839,840.11,11297
20100428,835.06,840,835,839.92,3661
20100501,839.92,868,840,839.92,1489
20100502,867.69,868,868,840.11,218
20100505,839.92,840,840,840.11,1526
20100511,864.19,864,864,848.07,13810
20100515,863.22,864,863,854.48,16849
20100518,866.13,866,866,854.48,178
20100523,852.35,853,852,852.54,125340
20100524,852.54,854,853,852.54,152639
20100525,823.41,823,823,850.79,2519
20100526,864.19,864,864,851.18,1118
20100601,850.21,850,850,850.40,53500
20100606,850.60,851,821,847.30,5310
20100608,818.17,818,818,846.13,1633
20100612,844.77,845,845,845.94,3350
20100613,844.58,847,845,845.94,10980
20100622,741.46,741,741,755.63,20000
20100623,729.22,729,729,755.44,250
20100627,757.38,757,729,749.03,11220
20100628,776.80,777,752,750.20,3739
20100630,751.75,752,752,750.20,1747
20100704,757.38,757,720,749.42,4000
20100705,721.45,721,721,747.67,2500
20100714,737.96,757,738,748.84,10253
20100717,778.74,779,779,751.75,4000
20100718,781.66,782,782,776.02,34219
20100720,796.22,796,796,777.38,2687
20100721,796.80,797,797,778.16,1813
20100724,771.17,771,771,777.77,2570
20100725,771.17,771,771,777.77,200
20100801,777.77,778,778,777.77,111
20100802,796.22,809,796,791.75,20050
20100803,823.41,823,823,792.34,729
20100804,792.34,792,761,791.37,2271
20100809,791.37,823,791,806.90,29691
20100811,823.41,823,823,807.10,448
20100814,839.33,839,839,813.31,8029
20100815,823.41,823,823,815.84,11066
20100816,783.21,848,783,837.20,32752
20100818,870.02,871,870,839.92,3368
20100821,806.51,807,806,830.40,12000
20100822,854.48,854,797,830.21,2138
20100823,863.41,863,863,834.48,5470
20100828,867.69,868,868,836.81,2920
20100829,870.21,870,870,868.08,39438
20100830,902.64,903,902,879.73,14208
20100831,870.02,870,854,877.40,6610
20100906,842.44,842,842,862.83,17540
20100907,835.06,836,835,857.98,7548
20100908,873.90,874,874,858.37,1105
20100914,873.90,892,874,860.31,2692
20100918,854.48,854,854,860.31,100
20100919,860.31,860,826,857.78,3499
20100922,823.80,824,824,851.18,8275
20100925,851.18,851,851,851.18,38100
20100928,851.18,851,851,851.18,999
20100929,873.71,874,874,853.51,4250
20101002,819.53,820,820,851.76,2095
20101011,817.78,818,818,841.28,13000
20101107,807.68,808,808,839.72,2000
20101115,806.32,806,806,806.32,117240
20101211,838.56,839,839,808.26,2583
20101213,840.50,840,840,823.60,20000
20101218,823.60,824,824,823.60,8600
20101220,790.78,816,791,822.05,3650
20101228,854.87,855,855,824.19,2759
20110103,857.01,857,857,839.14,19344
20110104,872.54,873,873,840.11,1166
20110111,873.71,874,874,856.03,20000
20110112,890.21,890,887,890.21,61498
20110115,925.75,926,926,892.54,2692
20110119,928.08,928,928,928.08,53276
20110122,965.18,965,965,965.18,308799
20110123,1003.63,1004,999,966.53,1530
20110126,927.89,950,928,945.95,23448
20110214,908.27,908,908,944.78,1364
20110219,912.74,922,907,912.74,484360
20110220,922.45,924,912,917.21,983208
20110301,918.57,919,919,917.21,408
20110302,880.70,881,881,917.01,287
20110305,880.70,881,881,913.71,3917
20110306,877.79,878,878,911.77,2313
20110328,875.45,909,875,901.87,17252
20110329,877.79,878,878,901.28,1083
20110403,865.36,865,865,897.01,5000
20110404,893.32,893,868,893.71,9476
20110406,896.82,906,871,891.96,8519
20110409,887.30,892,884,891.77,201493
20110410,877.79,878,878,880.70,33279
20110412,877.79,878,864,879.34,7999
20110416,902.84,903,903,884.39,9149
20110417,903.42,903,903,885.36,1943
20110502,850.01,904,850,882.45,3846
20110503,903.81,904,904,882.64,281
20110504,903.42,903,903,882.64,30
20110509,893.32,903,893,902.25,58021
20110510,903.03,918,903,902.64,18339
20110511,917.60,918,918,902.84,780
20110515,938.76,939,938,908.08,6200
20110516,938.76,944,939,909.63,1909
20110521,945.95,946,946,910.61,1036
20110522,945.95,946,946,911.58,1153
20110523,945.95,948,946,933.13,25150
20110525,970.42,970,970,933.52,500
20110529,970.81,971,971,935.46,2158
20110530,971.00,971,971,937.99,2933
20110607,975.47,975,975,957.41,22000
20110612,980.71,981,981,957.60,450
20110613,980.71,981,981,958.18,1200
20110614,980.71,981,981,958.18,150
20110615,980.71,981,979,959.54,2699
20110620,979.74,980,980,960.90,2760
20110621,960.90,961,961,960.90,8178
20110622,999.16,999,999,960.90,20
20110625,999.16,999,998,999.16,110007
20110711,901.09,903,901,901.48,197500
20110716,873.90,874,874,901.09,500
20110718,873.90,874,874,900.70,605
20110726,873.90,874,874,900.12,1027
20110802,936.05,936,936,900.90,1000
20110807,931.97,937,932,924.78,30095
20110808,961.68,962,961,925.95,1374
20110810,962.85,963,963,926.34,500
20110813,963.23,963,963,926.53,292
20110815,963.43,963,963,926.92,500
20110816,963.82,964,964,927.50,705
20110817,964.40,965,964,936.43,10226
20110820,964.79,974,965,939.54,4312
20110823,939.74,940,940,939.54,1481
20110827,977.02,977,977,939.74,234
20110829,977.22,977,977,941.87,2500
20110903,941.87,942,942,941.87,2000
20110904,979.55,980,980,943.62,2000
20110905,971.00,981,971,944.01,437
20110906,981.68,982,982,944.01,100
20110907,981.68,982,982,963.23,21500
20110911,1001.69,1002,1002,963.43,184
20110912,1001.88,1002,1002,965.76,2572
20110920,1004.21,1004,1004,965.76,17
20110925,1004.21,1004,1004,966.73,998
20110927,1005.37,1005,1005,972.36,6100
20111001,1011.20,1011,1011,974.11,2000
20111003,1012.95,1013,1013,974.50,438
20111012,1013.34,1013,1013,978.19,4000
20111017,1017.22,1017,1017,978.38,184
20111024,1017.42,1017,1017,978.58,184
20111025,1017.61,1018,1018,981.29,2933
20111113,1108.88,1153,1109,1152.58,101165
20111114,1107.72,1199,1108,1169.09,16495
20111116,1215.69,1216,1216,1169.28,192
20111119,1215.89,1216,1216,1180.35,10000
20111128,1227.54,1228,1228,1184.43,3649
20111129,1231.62,1232,1232,1185.20,708
20111130,1232.59,1233,1233,1186.95,1500
20111203,1234.34,1234,1234,1187.53,500
20111204,1234.92,1235,1188,1205.01,73996
20111207,1253.17,1253,1253,1205.40,300
20111210,1253.56,1254,1254,1216.86,10000
20111211,1204.04,1265,1204,1227.93,11287
20111212,1276.09,1276,1276,1229.68,1579
20111213,1278.81,1279,1214,1229.87,3800
20111214,1278.61,1279,1279,1264.83,30094
20111218,1279.00,1279,1279,1265.02,400
20111219,1315.51,1316,1316,1268.13,2600
20111220,1318.81,1319,1319,1270.65,2150
20111221,1321.34,1321,1220,1272.01,1700
20111225,1322.89,1323,1323,1272.21,160
20111227,1323.09,1323,1323,1272.59,300
20120101,1262.30,1262,1262,1272.59,257
20120104,1281.72,1321,1282,1272.98,1200
20120117,1222.10,1222,1222,1272.79,200
20120121,1289.10,1289,1289,1273.18,800
20120128,1222.30,1286,1222,1272.98,2125
20120213,1229.29,1229,1229,1272.40,600
20120303,1221.52,1223,1222,1269.68,2250
20120304,1223.27,1223,1223,1266.19,3170
20120306,1222.88,1223,1223,1264.63,1550
20120307,1222.88,1223,1223,1263.27,1373
20120317,1242.69,1243,1243,1263.08,500
20120325,1242.69,1243,1243,1262.88,513
20120327,1287.55,1288,1288,1262.88,100
20120501,1212.39,1289,1212,1262.88,925
20120507,1212.39,1212,1212,1260.17,2250
20120515,1209.87,1210,1210,1259.97,175
20120521,1209.67,1289,1210,1252.79,7250
20120522,1281.72,1289,1282,1253.37,860
20120526,1204.04,1204,1204,1249.68,3244
20120527,1288.71,1289,1289,1249.87,300
20120529,1288.71,1289,1289,1250.84,1050
20120610,1288.32,1301,1288,1264.05,14413
20120611,1314.54,1315,1315,1265.41,1200
20120613,1288.52,1289,1289,1265.41,50
20120616,1288.52,1293,1289,1265.60,405
20120627,1149.08,1149,1149,1149.08,8000
20120630,1149.08,1149,1149,1149.08,79
20120711,1194.91,1195,1195,1149.28,221
20120801,1103.45,1103,1103,1147.72,1447
20120827,1193.56,1194,1194,1148.31,500
20120929,1194.14,1194,1194,1148.69,300
20121002,1194.53,1195,1195,1194.53,224914
20121013,1242.30,1242,1242,1197.44,2600
20121017,1206.18,1206,1206,1197.44,36
20121027,1245.21,1245,1245,1199.96,2250
20121118,1206.37,1206,1206,1200.35,3000
20121204,1248.32,1248,1248,1200.55,100
20121209,1248.51,1249,1249,1207.34,5999
20121215,1255.50,1256,1256,1219.19,10383
20121216,1267.93,1268,1268,1219.19,1
20121219,1267.93,1268,1268,1225.02,5000
20121223,1273.95,1274,1274,1226.76,1500
20130203,612.51,613,613,589.20,800
20130224,1178.41,1225,1178,1213.56,2000
20130225,1261.91,1262,1262,1214.72,1998
20130226,1263.27,1263,1263,1214.92,500
20130227,1263.47,1263,1263,1215.11,500
20130302,1263.66,1264,1264,1215.69,1000
20130304,1264.24,1264,1263,1221.71,11214
20130305,1270.46,1270,1270,1221.71,127
20130311,1270.46,1270,1270,1223.27,2894
20130313,1272.01,1272,1272,1225.21,3623
20130318,1274.15,1274,1274,1226.37,2165
20130410,1275.31,1275,1275,1229.87,6211
20130626,1137.63,1138,1138,1093.93,54
20130728,1181.32,1229,1181,1224.82,2939
20130729,1273.76,1274,1274,1273.76,234754
20130731,1324.64,1325,1325,1273.95,500
20130804,1324.83,1325,1325,1275.31,2500
20130805,1326.19,1326,1326,1307.74,55976
20130806,1359.98,1360,1360,1308.33,1000
20130807,1360.57,1361,1361,1308.72,500
20130812,1360.96,1361,1361,1309.10,500
20130813,1361.34,1361,1361,1309.30,400
20130814,1361.54,1362,1362,1311.24,3381
20130818,1363.67,1364,1364,1311.43,400
20130819,1363.87,1364,1364,1363.87,88000
20130820,1418.24,1418,1418,1394.75,50000
20130821,1450.48,1450,1450,1396.30,2480
20130824,1452.04,1452,1452,1396.49,400
20130825,1508.16,1568,1508,1508.74,50910
20130826,1568.94,1569,1569,1547.19,56245
20130827,1608.95,1609,1609,1584.29,52870
20130828,1647.60,1648,1648,1620.41,50100
20130831,1685.08,1685,1685,1685.08,100400
20130901,1752.46,1752,1752,1723.33,50000
20130903,1792.08,1792,1792,1774.02,65000
20130904,1844.90,1845,1845,1844.90,197201
20130907,1918.70,1919,1919,1849.95,5976
20130908,1923.94,1924,1924,1850.15,300
20130909,1924.14,1924,1924,1875.39,30000
20130910,1950.35,1950,1950,1950.35,102000
20130911,2028.23,2028,2028,1952.30,2300
20130914,2030.36,2030,2030,1952.49,264
20130915,2030.56,2031,2031,1952.68,300
20130916,2030.75,2031,2031,1952.88,310
20130917,2030.95,2031,2031,1988.42,40000
20130918,2067.84,2068,2068,1992.88,5000
20130921,2072.51,2073,2073,1999.49,7204
20130922,2079.30,2079,2079,2013.66,15700
20130923,2094.06,2094,2094,2060.27,51000
20130924,2142.61,2143,2143,2063.18,3082
20130925,2145.52,2146,2146,2095.23,34285
20130928,2178.93,2179,2179,2102.02,7243
20130929,2185.92,2186,2186,2117.75,16500
20130930,2202.43,2202,2202,2118.73,1000
20131001,2203.40,2203,2203,2120.08,1500
20131005,2204.76,2205,2205,2121.06,1000
20131007,2205.73,2206,2206,2122.22,1270
20131009,2207.09,2207,2207,2131.93,10000
20131012,2217.18,2217,2217,2132.32,400
20131013,2217.57,2218,2218,2149.60,17800
20131022,2235.44,2235,2235,2169.02,20000
20131027,2255.64,2256,2256,2169.61,500
20131104,2256.22,2256,2256,2191.74,22468
20131105,2279.33,2279,2279,2193.69,2000
20131109,2281.27,2281,2281,2194.27,500
20131110,2281.85,2282,2282,2194.66,300
20131117,2282.44,2282,2282,2195.63,1000
20131118,2283.41,2283,2283,2196.02,300
20131120,2283.80,2284,2284,2196.79,831
20131123,2284.57,2285,2285,2240.10,43400
20131124,2329.63,2330,2330,2240.49,300
20131126,2330.02,2330,2330,2241.07,500
20131130,2330.60,2331,2331,2241.46,400
20131202,2330.99,2331,2331,2242.43,1000
20131203,2331.96,2332,2332,2248.65,6082
20131204,2338.56,2339,2339,2310.98,61000
20131208,2403.42,2403,2403,2320.69,9300
20131210,2413.52,2414,2414,2321.08,300
20131211,2413.91,2414,2414,2323.22,2000
20131214,2416.05,2416,2416,2416.05,257000
20131224,2512.56,2513,2513,2418.38,2083
20131228,2515.09,2515,2515,2418.76,300
20131229,2515.48,2515,2515,2419.15,300
20140101,2515.86,2516,2516,2419.54,300
20140104,2516.25,2516,2516,2421.68,2000
20140106,2518.39,2518,2518,2443.62,20000
20140107,2541.31,2541,2541,2444.01,400
20140108,2541.69,2542,2542,2444.40,300
20140113,2542.08,2542,2542,2444.40,50
20140115,2542.08,2542,2542,2445.56,1049
20140118,2543.25,2543,2543,2446.15,464
20140120,2543.83,2544,2544,2450.23,3600
20140122,2548.10,2548,2548,2450.61,332
20140125,2548.49,2548,2548,2450.81,200
20140126,2548.68,2549,2549,2451.39,540
20140127,2549.27,2549,2549,2452.36,960
20140129,2550.43,2550,2550,2452.56,160
20140201,2550.63,2551,2551,2453.14,521
20140203,2551.21,2551,2551,2454.30,960
20140204,2552.37,2552,2552,2454.69,400
20140218,1404.07,1404,1404,1350.27,300
20140224,1404.26,1404,1404,1350.47,350
20140225,1404.46,1404,1404,1352.02,4545
20140301,1406.01,1406,1406,1352.22,300
20140303,1406.20,1406,1406,1352.41,300
20140304,1406.40,1406,1406,1354.55,6149
20140308,1408.73,1409,1409,1354.74,400
20140309,1408.92,1409,1409,1354.74,10
20140312,1408.92,1409,1409,1354.94,300
20140318,1409.12,1409,1409,1381.93,80000
20140319,1437.08,1437,1437,1382.12,399
20140330,1437.28,1437,1437,1382.32,380
20140407,1437.47,1437,1437,1382.51,300
20140408,1437.66,1438,1438,1382.71,300
20140409,1437.86,1438,1438,1382.71,100
20140414,1437.86,1438,1438,1382.90,300
20140422,1438.05,1438,1438,1382.90,100
20140423,1438.05,1438,1438,1383.09,483
20140426,1438.25,1438,1438,1396.49,38600
20140428,1452.23,1452,1452,1396.69,300
20140429,1508.35,1569,1508,1566.03,3770
20140430,1628.56,1629,1629,1599.43,85470
20140503,1663.33,1663,1663,1599.63,578
20140504,1663.52,1664,1664,1599.63,210
20140505,1663.52,1664,1664,1602.54,7340
20140506,1666.63,1667,1667,1614.19,29010
20140507,1678.67,1679,1679,1614.19,10
20140510,1678.67,1679,1679,1616.91,6841
20140511,1681.58,1682,1682,1617.11,355
20140512,1681.77,1682,1682,1617.30,265
20140514,1681.97,1682,1682,1617.30,15
20140517,1681.97,1682,1682,1617.30,1
20140518,1681.97,1682,1682,1617.88,1251
20140519,1682.55,1683,1683,1635.17,42548
20140520,1700.42,1700,1700,1638.27,7804
20140521,1703.72,1704,1704,1638.47,400
20140524,1703.91,1704,1704,1650.51,29315
20140525,1716.34,1716,1716,1650.70,400
20140526,1716.73,1717,1717,1650.90,400
20140531,1716.92,1717,1717,1655.36,11000
20140601,1721.39,1721,1721,1658.47,7600
20140602,1724.69,1725,1725,1660.41,4744
20140603,1726.83,1727,1727,1663.33,6945
20140607,1729.74,1730,1730,1663.52,320
20140608,1729.94,1730,1730,1665.07,3884
20140621,1844.90,1919,1845,1862.96,423790
20140622,1937.34,1937,1890,1936.95,319021
20140623,1942.00,1942,1860,1860.24,175001
20140624,1785.87,1786,1786,1848.01,26439
20140629,1774.21,1774,1774,1843.74,9091
20140630,1770.14,1770,1770,1843.16,1360
20140701,1769.55,1770,1770,1816.36,58148
20140702,1743.72,1744,1744,1815.58,1750
20140705,1743.14,1884,1743,1789.36,541605
20140706,1747.80,1816,1718,1719.26,271111
20140707,1747.80,1767,1670,1728.97,53492
20140708,1759.26,1759,1672,1753.05,223936
20140709,1714.79,1745,1683,1721.78,72488
20140712,1660.41,1719,1653,1687.41,80232
20140713,1620.02,1620,1620,1684.30,7595
20140714,1620.02,1620,1617,1677.11,17339
20140715,1610.70,1695,1610,1667.02,25171
20140716,1600.40,1600,1600,1665.27,4137
20140721,1598.66,1709,1599,1647.21,60850
20140722,1707.99,1713,1708,1694.01,115066
20140723,1728.38,1748,1709,1694.79,3295
20140726,1708.96,1709,1627,1684.88,24029
20140727,1736.15,1736,1618,1681.19,12478
20140728,1621.57,1622,1614,1675.37,15215
20140802,1608.37,1699,1608,1675.95,4875
20140803,1669.93,1670,1631,1675.75,926
20140804,1697.31,1697,1609,1671.29,10871
20140805,1604.48,1604,1604,1668.18,7609
20140806,1604.48,1667,1602,1656.92,28501
20140809,1590.69,1591,1591,1655.95,2496
20140810,1589.72,1590,1590,1645.85,24421
20140811,1589.72,1631,1580,1645.07,2099
20140812,1630.31,1631,1579,1642.55,6400
20140813,1627.20,1631,1580,1641.19,11431
20140816,1631.09,1631,1576,1640.02,3010
20140817,1574.96,1575,1575,1638.27,4204
20140818,1572.83,1687,1573,1634.20,71857
20140819,1679.64,1699,1671,1680.80,124280
20140820,1732.07,1732,1631,1683.52,19261
20140823,1707.80,1708,1617,1682.55,8830
20140824,1617.69,1678,1616,1677.70,15167
20140825,1688.57,1698,1689,1678.47,8000
20140826,1688.18,1688,1641,1678.28,750
20140827,1695.76,1696,1626,1662.74,53106
20140831,1649.73,1651,1612,1660.41,30429
20140901,1650.51,1651,1594,1649.93,26812
20140902,1646.82,1647,1647,1649.93,287
20140903,1640.99,1641,1641,1649.93,416
20140906,1585.06,1643,1585,1649.34,1984
20140907,1611.86,1612,1612,1649.15,1000
20140908,1611.67,1695,1612,1651.29,114936
20140909,1697.12,1717,1640,1688.57,166733
20140910,1718.67,1719,1621,1687.60,5700
20140913,1620.21,1621,1620,1685.66,4783
20140914,1740.03,1740,1722,1702.75,50765
20140915,1726.05,1726,1726,1702.75,200
20140916,1725.86,1726,1709,1702.94,1600
20140917,1727.80,1728,1662,1702.75,2383
20140920,1720.61,1721,1670,1702.75,4770
20140921,1743.53,1744,1635,1699.64,12173
20140922,1633.61,1634,1632,1691.87,18550
20140923,1721.97,1722,1686,1692.07,1814
20140924,1646.04,1646,1644,1691.29,2352
20140927,1631.28,1631,1624,1688.57,6765
20140928,1689.54,1690,1631,1686.44,6680
20140929,1623.51,1748,1619,1702.75,86567
20140930,1745.86,1748,1710,1705.66,10431
20141001,1738.09,1763,1738,1705.86,510
20141004,1638.66,1748,1638,1704.50,3460
20141006,1689.54,1713,1652,1703.53,7380
20141007,1643.32,1643,1636,1695.95,18410
20141008,1707.02,1707,1628,1687.79,24695
20141011,1669.15,1709,1669,1687.60,2120
20141014,1620.80,1675,1620,1681.19,15965
20141015,1699.25,1699,1615,1680.03,3429
20141018,1650.70,1651,1651,1674.39,31233
20141019,1648.76,1649,1608,1664.10,30716
20141022,1648.76,1649,1612,1658.86,19135
20141025,1592.64,1593,1593,1652.06,16548
20141026,1590.50,1591,1586,1650.51,3684
20141028,1585.45,1592,1585,1627.79,56550
20141029,1584.67,1631,1585,1627.01,14264
20141101,1569.14,1670,1569,1624.10,41039
20141102,1650.70,1668,1651,1624.68,2000
20141105,1612.25,1690,1594,1633.81,43305
20141108,1699.06,1699,1690,1634.97,3518
20141109,1689.54,1690,1596,1634.97,1080
20141110,1603.12,1603,1574,1627.79,20000
20141111,1574.96,1693,1574,1674.01,145008
20141112,1650.70,1728,1651,1674.20,22417
20141115,1631.09,1741,1612,1689.35,41537
20141116,1746.83,1757,1745,1702.75,33970
20141117,1770.72,1771,1771,1712.26,22603
20141118,1780.62,1781,1781,1714.40,4989
20141119,1782.95,1783,1783,1735.37,48920
20141122,1786.64,1805,1787,1755.18,45526
20141123,1806.06,1825,1806,1761.98,16429
20141124,1832.28,1832,1832,1763.34,3300
20141125,1833.83,1834,1834,1771.30,18032
20141126,1841.99,1842,1842,1780.23,20065
20141129,1851.31,1851,1851,1785.87,12500
20141130,1857.14,1857,1825,1792.08,14481
20141201,1720.61,1864,1720,1800.82,31783
20141202,1872.67,1873,1872,1805.87,11422
20141203,1877.92,1878,1734,1808.78,6475
20141208,1736.54,1737,1737,1808.59,439
20141209,1737.12,1737,1736,1807.42,2706
20141210,1735.18,1735,1735,1807.23,624
20141214,1734.99,1735,1735,1807.03,620
20141215,1734.79,1735,1735,1806.84,500
20141216,1734.60,1735,1735,1775.18,70000
20141220,1704.30,1704,1704,1774.21,2000
20141222,1703.33,1703,1703,1772.08,4607
20141224,1701.19,1701,1701,1772.08,120
20141227,1701.19,1701,1701,1771.69,1000
20141229,1701.00,1701,1701,1771.50,500
20141230,1700.81,1765,1701,1714.98,2431034
20141231,1666.04,1740,1651,1711.68,97875
20150103,1647.79,1648,1643,1711.10,1475
20150104,1708.96,1719,1643,1710.13,12050
20150105,1650.70,1651,1651,1706.63,9584
20150106,1638.47,1638,1638,1705.27,3349
20150107,1637.11,1637,1637,1666.24,91737
20150110,1600.02,1600,1600,1654.97,27204
20150111,1611.86,1612,1589,1654.78,400
20150113,1588.75,1589,1589,1654.78,200
20150114,1588.75,1719,1589,1653.81,2950
20150117,1587.98,1642,1588,1653.23,2339
20150119,1685.66,1686,1587,1653.03,440
20150120,1587.00,1592,1587,1633.61,50000
20150124,1568.36,1568,1568,1633.03,1200
20150126,1567.78,1568,1568,1621.57,27969
20150127,1556.71,1557,1557,1619.44,5292
20150128,1554.77,1594,1555,1618.08,4222
20150131,1633.03,1633,1633,1618.08,130
20150201,1553.60,1554,1554,1617.88,370
20150202,1553.21,1554,1553,1615.16,6703
20150204,1550.69,1554,1551,1604.87,26294
20150207,1553.60,1554,1541,1604.68,370
20150210,1540.59,1541,1541,1604.68,90
20150217,1540.59,1542,1541,1594.97,24135
20150218,1650.51,1651,1651,1594.97,252
20150221,1531.27,1531,1531,1594.58,499
20150222,1530.88,1531,1531,1593.61,1209
20150223,1529.91,1530,1530,1567.39,32844
20150224,1504.86,1608,1505,1505.25,2233929
20150225,1564.87,1565,1565,1565.45,134470
20150228,1621.57,1628,1554,1568.56,6351
20150301,1628.37,1631,1628,1599.63,39834
20150302,1663.52,1664,1664,1631.67,40150
20150303,1696.53,1697,1697,1660.22,35129
20150304,1695.37,1695,1594,1662.55,5930
20150307,1728.77,1729,1612,1687.41,55829
20150308,1623.51,1624,1620,1622.35,160000
20150309,1594.38,1594,1592,1594.58,78322
20150310,1658.08,1658,1657,1641.77,60049
20150311,1705.08,1707,1705,1684.10,51726
20150314,1744.89,1751,1745,1748.77,124795
20150315,1818.30,1819,1816,1818.69,205555
20150316,1879.86,1880,1749,1861.60,226540
20150317,1787.23,1879,1787,1861.80,1006
20150318,1787.61,1874,1801,1861.99,1720
20150328,1873.64,1874,1874,1861.99,105
20150329,1796.55,1797,1788,1858.11,4274
20150330,1784.70,1785,1784,1857.33,850
20150404,1881.02,1932,1881,1931.13,80600
20150405,1936.37,2000,1874,1935.98,10348
20150406,1858.69,1859,1859,1934.04,1974
20150407,1874.03,1874,1874,1932.88,1499
20150408,1855.58,1856,1856,1932.68,300
20150411,1855.39,1901,1855,1915.98,36782
20150412,1841.02,1855,1841,1910.93,5650
20150413,1844.90,1845,1845,1910.15,890
20150418,1833.83,1834,1834,1909.96,190
20150420,1833.64,1901,1834,1886.85,42887
20150421,1939.28,1939,1932,1904.13,27183
20150422,1932.88,1933,1933,1905.49,3920
20150427,1829.37,1829,1829,1905.10,480
20150428,1828.98,1829,1829,1904.91,300
20150504,1828.78,1829,1829,1904.91,100
20150506,1828.78,1829,1829,1904.72,200
20150512,1828.59,1829,1829,1852.87,54483
20150513,1779.07,1779,1779,1778.87,196843
20150518,1707.99,1708,1708,1766.25,14171
20150519,1695.95,1696,1696,1766.06,200
20150523,1765.28,1765,1765,1766.06,390
20150524,1853.45,1853,1853,1766.06,2
20150530,1747.80,1748,1748,1766.06,65
20150531,1843.54,1844,1844,1769.55,3709
20150601,1682.94,1683,1681,1766.25,2960
20150607,1784.12,1784,1767,1766.45,620
20150608,1678.86,1680,1679,1765.28,1065
20150609,1679.83,1680,1678,1762.56,2573
20150617,1850.63,1851,1851,1762.78,200
20150621,1762.78,1763,1763,1762.78,22614
20150622,1842.70,1843,1843,1763.85,1152
20150623,1851.91,1852,1852,1764.92,1058
20150624,1852.98,1853,1853,1765.13,242
20150711,1851.70,1852,1677,1765.56,1524
20150712,1842.70,1852,1843,1767.92,2300
20150715,1854.91,1856,1843,1769.63,1580
20150725,1756.99,1757,1757,1769.63,100
20150729,1716.28,1716,1716,1769.42,290
20150803,1716.28,1716,1682,1768.56,1000
20150905,1692.71,1693,1693,1759.99,9000
20150908,1692.71,1693,1693,1759.13,1000
20150915,1692.71,1693,1672,1681.35,74034
20150919,1597.36,1765,1597,1652.00,27923
20150920,1585.58,1586,1570,1650.29,1809
20150923,1567.79,1728,1568,1592.01,57300
20150926,1660.57,1671,1513,1565.65,28891
20150927,1500.08,1500,1500,1565.22,470
20150928,1499.87,1500,1487,1535.87,30350
20150930,1461.52,1462,1462,1535.01,900
20151003,1459.16,1460,1458,1458.30,115539
20151006,1489.16,1489,1489,1458.52,500
20151011,1388.45,1393,1386,1399.38,65606
20151012,1339.38,1339,1339,1399.16,269
20151013,1469.02,1469,1405,1467.52,224532
20151014,1499.66,1541,1500,1538.01,138445
20151017,1607.00,1615,1607,1614.07,79603
20151018,1694.64,1695,1577,1639.14,39095
20151019,1690.14,1690,1557,1633.57,6036
20151020,1552.37,1552,1552,1632.72,789
20151021,1551.29,1590,1551,1632.29,524
20151025,1550.87,1551,1551,1623.29,8875
20151026,1542.72,1543,1542,1617.29,6000
20151027,1542.51,1543,1537,1615.15,2229
20151028,1534.80,1612,1535,1595.00,20890
20151102,1532.01,1532,1532,1594.79,211
20151104,1624.15,1624,1624,1594.79,150
20151108,1564.15,1564,1545,1589.86,10000
20151109,1547.22,1547,1543,1581.93,14227
20151123,1564.15,1564,1547,1569.94,43283
20151128,1500.51,1501,1501,1568.86,1257
20151206,1568.44,1568,1500,1561.37,18599
20151214,1487.01,1487,1483,1544.65,17323
20151215,1467.73,1468,1468,1526.01,19230
20151216,1449.95,1450,1450,1523.23,3000
20151220,1450.59,1451,1447,1519.80,3663
20151221,1443.95,1444,1444,1518.94,837
20151222,1443.95,1444,1443,1516.15,3000
20151223,1440.52,1441,1441,1512.08,4366
20151226,1436.88,1437,1437,1497.30,15607
20151227,1423.59,1424,1423,1494.73,2793
20151230,1478.44,1493,1478,1494.51,4000
20160102,1491.30,1493,1491,1494.30,7416
20160103,1494.51,1558,1495,1494.30,6170
20160104,1494.51,1569,1494,1542.30,68871
20160105,1600.36,1616,1501,1557.08,243793
20160106,1489.16,1557,1481,1549.15,20515
20160109,1556.87,1586,1500,1514.23,91746
20160111,1542.51,1583,1541,1518.30,5450
20160112,1584.08,1584,1583,1521.30,3666
20160113,1584.08,1590,1560,1525.15,6781
20160116,1601.22,1601,1586,1541.44,19054
20160117,1585.79,1618,1571,1554.29,21537
20160118,1562.22,1618,1554,1556.01,24601
20160119,1557.94,1607,1556,1556.65,50745
20160120,1606.79,1634,1586,1593.29,44853
20160123,1672.78,1673,1673,1601.22,7932
20160124,1681.14,1681,1680,1681.14,178651
20160125,1757.21,1765,1757,1764.49,96154
20160126,1851.70,1853,1843,1851.91,150511
20160127,1943.40,1944,1847,1912.98,78419
20160130,1928.40,1992,1886,1915.76,56847
20160131,1970.83,2010,1968,1936.76,24200
20160201,2003.40,2033,2003,1960.76,20445
20160202,2058.68,2059,2047,2000.18,34854
20160203,2071.96,2076,2072,2037.25,40037
20160206,1943.62,2074,1944,2037.04,557
20160207,2138.82,2139,2037,2038.11,2366
20160208,2024.61,2025,1993,2029.11,16424
20160209,1998.26,2022,1998,2025.47,30862
20160210,2025.47,2035,1928,1981.11,76684
20160213,2035.32,2078,1935,1990.11,10868
20160214,2056.54,2057,1931,1993.76,5819
20160215,2014.11,2093,2014,2085.46,225673
20160216,2135.17,2190,2026,2178.88,325724
20160217,2178.88,2179,2164,2178.88,20300
20160220,2287.73,2288,2213,2193.24,12337
20160221,2193.45,2271,2143,2195.38,11127
20160222,2185.53,2268,2186,2197.95,12014
20160223,2269.09,2284,2269,2203.95,6100
20160224,2186.60,2250,2187,2201.60,22685
20160227,2247.66,2248,2228,2202.02,800
20160228,2249.81,2250,2250,2202.02,100
20160301,2142.67,2143,2102,2201.81,280
20160305,2099.82,2100,2100,2195.38,5000
20160308,2099.82,2100,2100,2194.74,500
20160315,2089.11,2239,2085,2134.96,137131
20160402,2232.45,2232,2232,2135.17,100
20160403,2174.81,2175,2175,2138.39,6300
20160406,2035.54,2036,2036,2130.03,6543
20160409,2099.82,2237,2164,2219.17,100872
20160410,2232.66,2284,2228,2242.73,43655
20160411,2242.73,2353,2243,2274.87,38192
20160412,2292.66,2355,2293,2286.02,20800
20160413,2324.80,2357,2314,2286.87,1500
20160416,2398.72,2401,2357,2318.16,32575
20160417,2205.24,2270,2205,2316.66,2336
20160418,2399.79,2400,2228,2315.80,1300
20160419,2335.51,2357,2336,2318.37,5749
20160420,2431.50,2434,2400,2423.58,250154
20160423,2544.64,2545,2545,2504.35,53431
20160424,2629.49,2629,2508,2508.85,3098
20160425,2506.93,2634,2507,2522.14,9685
20160426,2464.07,2550,2464,2520.42,2401
20160427,2397.86,2614,2398,2517.00,2600
20160430,2406.22,2571,2402,2516.14,2154
20160502,2623.70,2642,2624,2547.21,21566
20160503,2614.06,2674,2603,2661.20,129342
20160504,2785.26,2794,2785,2666.77,3585
20160507,2785.26,2785,2785,2667.20,350
20160508,2785.26,2785,2785,2675.98,5921
20160509,2785.47,2785,2785,2681.55,4085
20160510,2785.26,2785,2593,2684.34,12901
20160511,2614.06,2800,2614,2699.77,12156
20160514,2785.47,2785,2700,2710.05,10272
20160515,2785.47,2785,2737,2728.48,52839
20160516,2785.47,2865,2785,2732.55,4219
20160517,2785.47,2866,2733,2733.62,3554
20160518,2764.26,2859,2739,2735.76,9569
20160521,2849.75,2860,2736,2744.76,11555
20160523,2866.90,2882,2785,2755.48,14336
20160524,2785.69,2828,2785,2792.97,63237
20160525,2828.33,2860,2828,2802.83,13783
20160528,2902.89,2903,2871,2827.47,27285
20160605,2827.47,2829,2827,2827.47,8335
20160606,2851.78,2899,2852,2830.74,5277
20160607,2910.22,2910,2840,2837.52,11610
20160608,2887.08,2887,2835,2840.79,21836
20160611,2840.33,2840,2824,2837.52,20160
20160612,2898.53,2899,2887,2846.40,13300
20160613,2889.41,2934,2889,2851.31,4706
20160614,2945.28,2985,2945,2873.52,15749
20160618,3015.41,3017,3015,2920.50,26355
20160619,3066.13,3066,3066,2923.78,1769
20160620,3068.94,3069,3066,2977.54,29829
20160621,3126.21,3126,3125,3032.24,29449
20160622,3183.71,3184,3156,3048.13,8914
20160625,3038.78,3155,2992,3049.07,5172
20160626,3143.97,3198,3144,3049.53,274
20160628,3197.73,3198,3197,3051.87,1298
20160629,3039.25,3109,2992,3050.70,2593
20160702,3050.70,3109,3039,3049.30,10400
20160703,3039.02,3040,2969,3042.05,34694
20160704,3039.02,3144,3039,3041.12,26626
20160705,3036.44,3039,3036,3040.65,14002
20160709,3038.78,3107,2945,3036.91,6300
20160710,3038.78,3039,3039,3037.15,10400
20160711,3038.78,3156,2961,3054.44,19100
20160713,3039.02,3039,3039,3053.74,3700
20160716,3062.16,3062,3039,3056.55,30752
20160717,3048.13,3048,3048,3056.55,80
20160718,3085.53,3153,3086,3068.94,19078
20160719,3132.28,3179,3132,3071.04,1930
20160720,3176.70,3224,3156,3092.31,13476
20160723,3246.82,3247,3247,3093.95,800
20160725,3248.46,3248,3248,3093.95,10
20160801,3248.46,3248,3248,3094.88,500
20160802,3249.63,3250,3250,3095.82,520
20160803,3250.56,3251,3251,3096.05,105
20160806,3250.80,3251,3251,3096.05,5
20160809,3250.80,3251,3251,3096.29,100
20160810,3251.03,3251,3251,3115.69,10000
20160813,3271.37,3271,3271,3115.92,100
20160815,3271.60,3272,3272,3117.79,1008
20160816,3273.47,3273,3273,3117.79,10
20160820,3273.47,3273,3273,3118.73,539
20160822,3274.64,3275,3275,3123.63,2575
20160823,3279.78,3280,3280,3279.78,80000
20160824,3443.64,3444,3444,3280.01,100
20160828,3443.88,3444,3444,3280.48,183
20160829,3444.34,3444,3444,3280.72,125
20160830,3444.58,3445,3445,3280.95,150
20160831,3444.81,3445,3445,3281.18,100
20160906,3445.04,3445,3445,3281.42,105
20160910,3445.28,3445,3445,3281.65,100
20160913,3445.51,3446,3446,3281.65,50
20160914,3445.51,3446,3446,3281.88,100
20160919,3445.98,3446,3446,3302.45,10000
20160921,3467.48,3467,3467,3302.92,240
20160926,3467.95,3468,3468,3333.78,15000
20160928,3500.44,3500,3500,3337.99,2000
20161001,3504.88,3505,3505,3339.15,530
20161002,3506.05,3506,3506,3391.28,25000
20161003,3560.75,3561,3561,3413.02,10214
20161004,3583.66,3584,3584,3435.69,10669
20161005,3607.27,3607,3607,3436.40,312
20161008,3608.20,3608,3608,3460.24,11056
20161009,3633.21,3633,3633,3460.71,200
20161010,3633.68,3634,3634,3486.42,11909
20161015,3660.56,3661,3661,3488.52,1000
20161016,3662.90,3663,3663,3662.90,85500
20161119,4908.80,5154,4815,5125.72,1604731
20161121,5324.88,5382,4872,5173.41,224071
20161122,5142.55,5283,4915,5084.12,58429
20161123,4830.26,4830,4830,4986.41,61547
20161126,4737.23,5091,4737,4812.96,569502
20161127,5053.26,5053,5053,4905.53,61520
20161129,5150.50,5151,5151,5150.50,269541
20161203,5407.63,5408,5283,5407.63,270098
20161204,5677.85,5678,5678,5677.85,160000
20161205,5961.62,5962,5962,5961.62,307403
20161206,6030.81,6054,5704,5896.17,273381
20161207,5797.06,5811,5602,5753.12,85898
20161210,5694.21,5694,5466,5618.94,75979
20161211,5338.44,5376,5338,5427.26,109487
20161212,5339.37,5698,5339,5616.60,113882
20161213,5698.42,5897,5610,5791.45,186260
20161214,5811.09,5937,5704,5810.62,46540
20161218,6076.63,6101,6031,6094.39,268400
20161219,6189.77,6254,6148,6117.77,49926
20161220,5843.81,6353,5812,6241.19,148576
20161221,6354.79,6475,6287,6284.20,80266
20161224,5984.06,6098,5970,6094.86,105431
20161225,5974.71,6007,5943,6069.15,33015
20161226,6072.42,6078,6048,6071.02,55613
20161227,6077.56,6157,6071,6076.63,72506
20161228,6376.77,6377,6183,6116.83,27796
20161231,6422.58,6423,6363,6418.84,230108
20170101,6311.32,6312,6215,6363.21,48361
20170102,6287.94,6288,6148,6343.11,16670
20170103,6171.07,6171,6026,6295.42,29938
20170104,5981.26,5995,5981,6235.58,30790
20170107,5924.22,5924,5924,6221.56,7131
20170108,5910.66,5911,5911,6212.21,4707
20170109,5901.78,5902,5902,6210.34,1025
20170114,5899.91,5900,5900,6175.27,18045
20170115,5866.72,5867,5867,6173.87,793
20170116,5865.32,5865,5865,6172.94,555
20170117,5864.38,5864,5864,6170.60,1190
20170121,5862.51,5863,5863,6059.33,57772
20170122,5756.39,5756,5756,6055.12,2345
20170123,5752.65,5753,5753,5842.88,112244
20170124,5551.15,5551,5551,5829.79,7253
20170125,5551.15,5844,5539,5776.02,30996
20170128,5538.53,5839,5488,5757.79,20674
20170129,5867.19,5867,5750,5770.41,30780
20170130,6030.35,6030,5704,5771.82,1963
20170131,5703.56,5704,5483,5765.27,4400
20170204,5477.29,5484,5477,5723.66,23382
20170205,5446.43,5446,5438,5438.02,165500
20170206,5377.24,5377,5167,5435.68,3000
20170207,5189.30,5189,5164,5397.34,22911
20170208,5151.90,5152,5128,5321.61,44828
20170211,5057.94,5423,5056,5213.15,70175
20170212,4952.75,4953,4953,5136.94,46910
20170213,5393.60,5394,5376,5140.22,2249
20170215,5390.33,5390,5390,5140.68,174
20170218,5137.88,5138,5138,5140.68,200
20170219,5212.68,5376,5213,5155.18,14380
20170220,4897.58,5350,4898,5158.45,3358
20170221,5142.55,5158,5049,5156.11,7368
20170222,4955.55,4956,4899,5129.00,16803
20170225,5133.20,5133,5133,5129.46,12424
20170226,4876.08,5120,4876,5127.13,2420
20170227,4876.08,4876,4876,5108.89,11500
20170228,5120.11,5120,5119,5111.23,30900
20170301,4862.05,4865,4856,4982.67,80712
20170304,4932.18,5049,4932,4982.67,500
20170305,4734.42,4734,4734,4840.08,91650
20170306,4731.15,4731,4724,4838.68,2004
20170307,4602.12,4731,4600,4709.64,95450
20170308,4598.38,4731,4598,4708.24,2101
20170312,4731.15,4731,4582,4707.77,1500
20170313,4488.05,4488,4476,4683.93,16530
20170314,4481.03,4481,4481,4620.35,50000
20170318,4850.83,4851,4494,4624.09,2852
20170326,4499.27,4499,4499,4623.16,1000
20170327,4497.40,4497,4494,4621.29,2530
20170328,4511.42,4511,4498,4620.35,1450
20170404,4506.75,4507,4494,4601.18,24544
20170408,4494.12,4565,4395,4588.09,12968
20170409,4672.71,4675,4420,4593.24,11071
20170410,4441.30,4441,4418,4581.08,11100
20170412,4411.84,4418,4399,4576.41,4305
20170415,4395.01,4409,4395,4570.80,5281
20170416,4395.95,4799,4395,4583.42,44828
20170417,4723.67,4812,4724,4600.25,11667
20170418,4830.26,4830,4675,4649.34,34475
20170419,4851.30,4882,4851,4669.44,13722
20170422,4902.72,4903,4884,4674.58,3546
20170423,4907.87,4908,4908,4858.31,126079
20170424,5100.95,5101,5101,4859.71,922
20170426,5102.35,5102,5102,4928.90,45728
20170429,5175.28,5175,5175,4975.19,30150
20170430,5223.90,5224,5224,5022.41,30500
20170501,5273.46,5273,5273,5072.90,32105
20170502,5326.28,5326,5326,5136.48,40266
20170503,5393.14,5393,5393,5154.24,11000
20170506,5411.84,5412,4933,5328.15,168047
20170507,5259.43,5259,5062,5251.48,47196
20170508,4989.21,5514,4989,5327.69,171717
20170509,5590.42,5594,5563,5349.19,13055
20170510,5610.06,5617,5610,5404.82,33302
20170513,5610.06,5675,5610,5418.38,10425
20170514,5689.07,5689,5656,5421.65,2113
20170515,5633.43,5692,5610,5465.13,28033
20170516,5738.16,5738,5657,5491.78,17653
20170517,5766.21,5766,5667,5517.96,16636
20170520,5793.79,5794,5793,5521.23,1797
20170521,5797.06,5797,5454,5523.57,6214
20170522,5610.06,5791,5609,5523.57,412
20170523,5750.31,5750,5736,5524.51,642
20170524,5703.56,5800,5693,5596.03,51962
20170527,5875.13,5876,5875,5596.50,390
20170528,5318.80,5597,5319,5596.50,196
20170529,5769.01,5769,5317,5551.62,26188
20170530,5750.31,5769,5750,5553.02,1000
20170531,5298.23,5299,5298,5552.09,564
20170603,5298.23,5423,5275,5546.48,3831
20170606,5308.52,5309,5309,5546.01,250
20170607,5272.05,5272,5269,5446.43,57953
20170610,5174.34,5174,5174,5390.33,33075
20170611,5121.05,5121,5121,5235.59,91965
20170619,5241.08,5241,5241,5235.59,1000
20170620,5044.91,5045,5045,5235.59,100
20170621,5044.91,5045,5045,5235.59,104
20170624,4996.49,5002,4993,5231.10,2956
20170625,5091.33,5091,5091,5229.60,1501
20170701,4994.00,4997,4993,5226.10,2489
20170702,4993.00,4993,4992,5225.11,700
20170703,5141.25,5141,4964,5094.33,80254
20170704,5094.33,5349,5094,5102.31,8262
20170705,5348.89,5357,5349,5105.81,2115
20170708,5360.87,5361,5361,5106.81,500
20170709,4991.50,4992,4852,5029.44,50003
20170710,4841.76,4842,4778,4952.07,50000
20170711,4769.38,4769,4704,4933.10,13431
20170715,4714.47,5131,4687,4925.62,5881
20170717,5171.70,5172,5172,4926.11,200
20170718,5047.41,5047,5047,4927.11,1000
20170725,5118.79,5119,4769,4927.11,2000
20170726,5047.91,5048,5048,4927.11,110
20170730,4717.47,4717,4717,4922.62,3316
20170731,4921.62,4922,4922,4922.62,1000
20170802,4742.43,4742,4677,4860.73,41100
20170806,5046.41,5103,4618,4885.18,24300
20170807,5128.27,5128,4742,4889.18,17457
20170808,4891.67,4892,4892,4889.18,3000
20170809,4961.55,4962,4789,4889.68,3040
20170812,4719.97,4720,4646,4675.54,141979
20170813,4442.44,4908,4442,4646.09,26417
20170815,4876.70,4878,4877,4648.59,1553
20170820,4463.90,4464,4464,4648.09,238
20170821,4464.40,4464,4416,4499.34,103665
20170822,4442.44,4442,4275,4475.88,17988
20170823,4252.76,4253,4252,4417.98,41312
20170826,4392.52,4406,4268,4408.50,12841
20170827,4237.79,4238,4188,4363.07,36144
20170828,4147.94,4236,4145,4322.14,35086
20170829,4250.27,4538,4250,4326.64,5040
20170830,4467.40,4467,4467,4327.13,380
20170902,4542.77,4543,4543,4327.63,426
20170903,4394.02,4394,4394,4327.63,110
20170904,4542.77,4543,4243,4324.64,8811
20170905,4536.78,4537,4537,4326.14,1000
20170911,4243.28,4243,4241,4321.14,9500
20170912,4239.78,4240,4118,4314.66,5259
20170913,4119.49,4193,4119,4313.16,1430
20170916,4192.86,4240,4193,4309.16,5768
20170917,4192.86,4240,4193,4305.17,6300
20170918,4239.78,4240,4133,4303.17,2175
20170919,4240.28,4240,4240,4302.18,2395
20170920,4132.96,4305,4133,4301.68,4789
20170924,4118.49,4305,4118,4301.68,3550
20170925,4297.68,4305,4124,4300.18,5298
20170926,4300.18,4300,4126,4290.20,11000
20170927,4290.20,4290,4290,4290.20,499
20171002,4305.17,4305,4305,4290.20,1920
20171003,4305.17,4305,4134,4288.20,3801
20171008,4138.95,4139,4114,4249.77,35607
20171009,4115.00,4115,4115,4249.77,1
20171011,4247.27,4293,4247,4250.27,1330
20171014,4292.69,4417,4293,4311.66,73666
20171015,4392.52,4492,4393,4453.42,175161
20171016,4614.64,4616,4612,4455.91,2750
20171017,4502.84,4503,4487,4473.88,78218
20171018,4491.85,4492,4279,4473.39,848
20171021,4285.21,4542,4250,4470.39,3078
20171022,4442.44,4614,4247,4446.93,19341
20171023,4247.27,4450,4225,4408.00,28500
20171024,4449.93,4450,4450,4408.00,573
20171028,4447.43,4447,4189,4402.01,7000
20171029,4182.88,4185,4183,4401.51,277
20171030,4182.88,4183,4182,4399.01,1734
20171031,4566.73,4567,4180,4398.51,2000
20171101,4442.44,4442,4442,4398.51,500
20171104,4178.89,4179,4179,4397.51,624
20171105,4180.38,4343,4178,4257.25,103869
20171106,4114.00,4470,4114,4377.05,105792
20171107,4201.85,4437,4202,4376.05,935
20171108,4565.23,4565,4158,4438.44,150276
20171111,4467.40,4467,4467,4456.41,100000
20171112,4467.40,4467,4467,4463.40,102720
20171113,4463.40,4548,4240,4414.49,553183
20171114,4467.40,4467,4462,4466.40,803000
20171115,4565.73,4566,4566,4466.40,100
20171118,4248.77,4249,4243,4431.46,25000
20171120,4210.33,4211,4210,4398.01,24280
20171121,4210.33,4210,4210,4398.01,150
20171122,4392.52,4442,4393,4441.94,241312
20171125,4442.44,4442,4442,4441.94,11435
20171126,4220.32,4370,4220,4430.46,8518
20171129,4327.63,4332,4328,4429.46,1800
20171202,4217.82,4218,4208,4423.47,4200
20171203,4202.35,4202,4202,4360.58,45500
20171204,4142.95,4143,4143,4357.58,2196
20171209,4192.86,4193,4140,4349.60,7039
20171210,4132.47,4132,4132,4348.10,1000
20171211,4130.97,4131,4131,4335.12,9621
20171212,4118.49,4118,4118,4320.65,10808
20171213,4107.51,4108,4105,4275.72,33338
20171216,4063.08,4063,4063,4265.74,7400
20171217,4052.60,4068,4053,4139.45,95000
20171218,3933.30,3943,3933,4112.00,21150
20171224,3908.85,3909,3907,4022.15,70000
20171225,3824.49,3824,3824,4019.66,2100
20171226,4017.66,4018,4018,4019.66,1800
20171227,4018.16,4018,4018,4019.66,1000
20171230,4215.32,4215,4190,4024.15,3690
20171231,3823.49,3843,3823,4013.17,8897
20180101,3823.49,3921,3823,4012.17,1400
20180102,3826.49,3826,3826,4009.18,2500
20180103,3823.49,3823,3823,4009.18,20
20180106,3823.49,4042,3823,4009.18,364
20180107,3809.02,3809,3809,4004.68,3555
20180109,3965.75,3993,3966,4003.68,6400
20180110,3993.20,3993,3993,4002.69,16500
20180113,3803.03,3803,3803,3862.92,111963
20180114,3670.25,3843,3670,3751.61,92874
20180116,3676.74,3677,3644,3751.61,150
20180117,3751.61,3752,3752,3751.61,1000
20180122,3693.71,3694,3694,3751.11,1000
20180123,3718.67,3744,3719,3750.62,4177
20180124,3564.43,3564,3564,3749.12,1200
20180127,3737.64,3738,3564,3739.63,9064
20180128,3565.43,3736,3559,3722.16,16534
20180129,3536.48,3736,3536,3722.16,8279
20180131,3549.46,3550,3549,3721.17,1001
20180204,3648.79,3649,3649,3721.17,42
20180205,3721.17,3721,3550,3720.67,13630
20180210,3668.75,3669,3643,3719.17,3764
20180212,3867.92,3893,3843,3730.15,11864
20180213,3893.37,3903,3893,3741.63,11057
20180214,3927.31,3928,3927,3752.61,9567
20180217,3928.31,3940,3928,3768.58,13501
20180218,3956.76,3957,3957,3768.58,200
20180219,3956.76,3957,3957,3771.08,2000
20180221,3959.26,3959,3959,3772.58,1103
20180224,3960.76,3961,3961,3777.57,4147
20180225,3966.25,3966,3959,3793.54,13537
20180226,3968.25,3983,3968,3796.04,2067
20180227,3985.72,3986,3948,3803.03,5921
20180228,3992.70,3993,3993,3813.51,8905
20180303,4004.18,4004,4003,3818.50,4356
20180304,4009.18,4009,3993,3826.49,6800
20180305,4017.66,4018,4018,3838.47,9860
20180306,4027.14,4027,4027,3844.95,5300
20180307,4037.13,4037,4037,3847.45,2103
20180310,4039.62,4040,4040,3890.88,36036
20180311,4085.05,4085,4085,3897.86,5591
20180312,4092.53,4093,4092,3941.29,35825
20180313,4137.96,4138,4137,3947.28,4944
20180314,4144.45,4144,4093,3965.75,18450
20180317,4149.44,4164,4143,3972.24,5260
20180318,4159.42,4159,4159,3974.73,2200
20180319,4159.42,4167,4158,3977.23,2102
20180325,3968.25,3968,3968,3977.23,445
20180326,3963.25,3963,3949,3977.23,445
20180327,3948.78,3993,3779,3973.74,4110
20180404,3776.07,3776,3776,3972.74,641
20180407,3774.57,3776,3775,3971.74,659
20180408,3774.57,3775,3775,3960.76,8834
20180410,3763.09,3763,3763,3952.77,6604
20180411,3755.61,3756,3756,3948.28,3715
20180415,3756.11,3756,3756,3943.79,3612
20180418,3756.11,3756,3756,3943.79,10
20180422,3893.37,3993,3893,3943.79,3000
20180423,3992.70,3993,3993,3943.79,1
20180424,3746.62,3747,3747,3942.79,720
20180425,3746.12,3746,3746,3936.80,5000
20180428,3843.46,3843,3843,3936.80,142
20180430,3743.63,3744,3740,3926.32,8506
20180501,3730.15,3769,3730,3917.33,7674
20180505,3842.96,3843,3843,3916.83,1300
20180506,3842.96,3917,3843,3916.33,2010
20180509,3721.66,3916,3721,3906.35,17996
20180512,3711.18,3711,3711,3905.85,536
20180513,3823.99,3824,3711,3893.37,10536
20180514,3893.37,3893,3893,3893.37,2550
20180515,3698.70,3699,3699,3874.90,15000
20180516,3703.20,3703,3703,3848.45,24604
20180519,3743.13,3743,3656,3826.99,18300
20180520,3693.21,3693,3693,3820.50,7918
20180521,3692.71,3693,3644,3810.01,10598
20180523,3619.84,3620,3620,3809.02,1000
20180528,3668.75,3669,3669,3809.02,108
20180529,3618.84,3619,3619,3799.53,8000
20180530,3673.25,3673,3610,3728.65,59806
20180602,3609.86,3610,3610,3728.15,500
20180603,3568.92,3589,3569,3727.65,810
20180609,3548.96,3549,3545,3727.16,300
20180610,3723.66,3724,3544,3686.23,35854
20180611,3715.18,3715,3544,3684.73,2010
20180612,3536.98,3537,3537,3683.73,1000
20180613,3556.45,3843,3537,3683.73,2928
20180617,3543.97,3594,3504,3641.30,45355
20180623,3632.62,3818,3633,3808.47,2950
20180624,3998.78,3999,3991,3811.94,2861
20180625,4002.25,4002,3816,3832.77,18582
20180626,4024.23,4024,3997,3843.18,9059
20180627,3892.92,4035,3893,3887.14,37028
20180630,4080.92,4081,4079,3892.35,4116
20180701,4049.10,4049,4049,3892.35,180
20180703,3904.49,3904,3899,3892.35,4850
20180704,3933.42,4083,3933,3898.13,12813
20180707,3933.42,3937,3933,3902.76,20210
20180708,3902.76,3903,3876,3902.76,2500
20180710,3790.54,3899,3708,3848.96,50250
20180711,3902.18,3902,3876,3848.96,388
20180714,3875.57,4020,3876,3876.73,341302
20180715,3878.46,3878,3878,3876.73,6077
20180716,3878.46,3974,3878,3880.20,110323
20180717,3991.26,3991,3882,3882.51,4345
20180718,3876.15,3877,3876,3875.57,201570
20180721,3933.42,3991,3876,3907.39,239630
20180722,3990.68,4102,3991,4079.18,282124
20180723,4282.80,4283,4283,4084.39,4000
20180724,4282.80,4283,4280,4100.59,13000
20180725,4282.80,4305,4282,4300.15,158207
20180728,4482.94,4515,4483,4372.45,54052
20180729,4590.53,4591,4590,4476.00,75877
20180730,4252.72,4699,4253,4493.35,16752
20180731,4717.78,4718,4714,4643.17,107246
20180801,4714.31,4870,4714,4658.21,15505
20180804,4627.55,4628,4426,4654.73,2350
20180805,4886.69,4887,4436,4653.58,8740
20180806,4454.59,4455,4454,4635.07,14916
20180807,4414.10,4415,4404,4597.47,27237
20180811,4367.83,4368,4368,4568.55,20182
20180812,4340.64,4341,4341,4493.93,52561
20180813,4315.19,4333,4269,4416.42,68279
20180814,4283.37,4335,4228,4408.90,11525
20180815,4335.43,4570,4335,4354.52,152649
20180818,4228.42,4512,4228,4354.52,900
20180819,4228.42,4228,4165,4345.85,7220
20180820,4165.37,4165,4165,4334.86,9500
20180825,4396.17,4396,4119,4294.36,90132
20180826,4120.83,4277,4121,4280.48,16648
20180827,4222.64,4275,4165,4279.90,1379
20180828,4143.97,4223,4079,4275.85,4563
20180829,4164.79,4268,4165,4275.28,5511
20180901,4279.32,4489,4279,4447.07,308153
20180902,4669.20,4669,4454,4489.88,37934
20180903,4266.02,4713,4266,4492.19,15026
20180904,4713.16,4713,4269,4486.99,26519
20180905,4625.81,4626,4300,4428.56,67737
20180908,4222.64,4499,4212,4396.17,49904
20180909,4338.33,4512,4305,4369.56,95822
20180910,4543.67,4588,4454,4415.26,62820
20180911,4635.65,4636,4489,4427.41,10068
20180912,4647.79,4648,4483,4469.63,31439
20180915,4692.91,4693,4693,4647.79,127737
20180916,4714.31,4880,4714,4759.43,79591
20180917,4997.17,4997,4917,4995.44,159868
20180918,5240.70,5245,5009,5244.17,171046
20180922,5506.20,5506,5443,5429.85,113740
20180923,5701.14,5986,5701,5824.35,214539
20180924,6115.30,6115,6115,6069.61,135002
20180925,6372.71,6373,6373,6151.17,43162
20180926,6458.32,6458,6458,6458.32,358833
20180929,6781.09,6781,6781,6485.51,13370
20180930,6809.44,6809,6809,6520.79,17299
20181001,6846.46,6846,6846,6595.99,36900
20181006,6925.13,6925,6579,6623.76,53828
20181007,6292.89,6293,6293,6599.46,11611
20181008,6269.75,6270,6270,6543.35,27363
20181009,6216.53,6217,6217,6476.25,32769
20181010,6152.90,6153,6153,6475.67,200
20181013,6152.32,6152,6152,6464.68,5410
20181014,6141.91,6142,6142,6461.79,1510
20181015,6139.02,6139,6139,6405.68,27883
20181016,6085.80,6086,6086,6353.62,26088
20181017,6036.06,6036,6036,6352.47,694
20181020,6034.90,6664,6035,6042.42,258789
20181021,6344.37,6344,5740,6009.45,40510
20181022,6224.05,6224,5740,5980.53,22323
20181023,6177.78,6178,5682,5809.31,100839
20181024,5524.14,5639,5519,5539.17,155217
20181104,5725.97,6012,5726,5936.24,82575
20181105,6232.86,6233,6233,5954.07,16462
20181106,6251.64,6252,6252,5974.72,19747
20181110,6273.23,6273,6273,5985.99,11001
20181111,6284.49,6284,6284,6055.45,65474
20181112,6357.71,6358,6358,6091.12,33322
20181113,6395.25,6395,6395,6274.16,168788
20181114,6587.68,6588,6588,6330.49,50286
20181117,6646.82,6647,6647,6377.42,41230
20181118,6695.63,6696,6696,6556.71,157811
20181119,6884.31,6884,6884,6581.11,21020
20181120,7312.35,7677,7041,7518.86,267327
20181121,7894.33,7894,7894,7719.74,149806
20181124,8105.54,8106,7334,7653.09,120758
20181126,7276.68,7284,7271,7551.71,74622
20181127,7174.36,7174,7174,7541.39,7865
20181128,7164.98,7165,7165,7533.88,5813
20181201,7157.47,7157,7157,7533.88,200
20181202,7157.47,7157,7157,7507.60,19734
20181203,7133.06,7133,7133,7499.15,6613
20181204,7124.61,7125,7125,7459.72,29637
20181205,7087.06,7087,7087,7444.70,11355
20181208,7072.98,7073,7073,7434.38,7692
20181209,7062.66,7063,7063,7433.44,810
20181210,7062.66,7404,7063,7122.73,241099
20181211,7077.68,7303,6777,7095.51,75239
20181212,7096.45,7311,6759,6995.07,105737
20181215,6758.53,6759,6646,6933.12,51522
20181216,6587.68,6772,6587,6863.66,57906
20181217,6521.04,6524,6521,6843.95,16345
20181218,6502.26,6502,6502,6835.50,6575
20181219,6493.82,6782,6494,6671.23,180495
20181222,6805.46,7004,6712,6718.16,68370
20181223,6852.39,6852,6447,6714.41,12833
20181224,6570.79,6571,6533,6710.65,6943
20181225,7044.82,7045,6442,6695.63,33608
20181226,6533.24,6533,6533,6695.63,18
20181230,7021.36,7021,6534,6667.47,27930
20181231,6757.59,6758,6477,6658.09,29435
20190101,6757.59,6758,6472,6659.02,19209
20190102,6327.67,6805,6327,6656.21,58110
20190105,6804.52,6852,6660,6665.60,19856
20190106,6659.02,6683,6659,6665.60,20269
20190107,6692.82,6693,6614,6660.90,47424
20190108,6664.66,6759,6613,6660.90,17576
20190109,6758.53,6759,6674,6662.78,5182
20190112,6664.66,6665,6618,6660.90,15699
20190113,6613.03,6617,6571,6652.45,29774
20190114,6525.73,6758,6336,6642.13,23204
20190115,6570.79,6571,6383,6635.56,21600
20190116,6383.05,6453,6304,6498.51,119728
20190119,6304.20,6445,6195,6491.00,13956
20190120,6406.52,6430,6168,6475.98,18004
20190121,6428.11,6428,6425,6475.98,450
20190122,6417.78,6430,6418,6475.98,1451
20190123,6410.27,6571,6270,6474.10,8674
20190126,6429.99,6465,6430,6473.17,4286
20190127,6440.31,6571,6440,6473.17,3089
20190128,6442.19,6712,6195,6482.55,30195
20190129,6476.92,6477,6289,6468.47,20655
20190130,6786.69,6787,6630,6492.88,28220
20190202,6739.75,6749,6665,6499.45,8300
20190203,6645.88,6646,6499,6500.39,1408
20190204,6636.50,6646,6502,6503.20,8034
20190205,6627.11,6627,6386,6498.51,11996
20190206,6598.95,6805,6599,6545.44,60965
20190213,6570.79,6571,6571,6545.44,1000
20190216,6476.92,6477,6477,6545.44,500
20190217,6636.50,6636,6392,6540.75,12957
20190218,6393.38,6738,6392,6543.57,6148
20190219,6737.87,6867,6665,6559.52,15950
20190220,6570.79,6665,6431,6558.59,14966
20190223,6478.80,6886,6478,6573.60,969694
20190224,6902.14,6902,6761,6639.31,63448
20190225,6688.12,6971,6688,6651.52,21377
20190226,6580.18,6636,6355,6644.94,16501
20190227,6570.79,6970,6314,6575.48,116006
20190302,6383.05,6843,6290,6543.57,50308
20190303,6739.75,6740,6400,6528.55,30266
20190304,6446.88,6535,6447,6529.49,24394
20190305,6570.79,6571,6405,6527.61,5758
20190306,6570.79,6747,6482,6540.75,38707
20190309,6711.59,6801,6525,6555.77,113831
20190310,6849.58,6851,6571,6607.40,86659
20190311,6570.79,6663,6547,6606.46,12747
20190312,6570.79,6571,6571,6599.89,48200
20190313,6435.62,6739,6436,6594.26,16266
20190316,6664.66,6712,6524,6594.26,27390
20190317,6843.01,6843,6431,6595.19,2024
20190318,6781.99,6782,6759,6603.64,14200
20190319,6843.01,6845,6571,6645.88,54155
20190325,6852.39,6852,6852,6646.82,1150
20190326,6851.45,6852,6848,6650.58,5610
20190327,6908.71,6983,6777,6780.12,114011
20190330,7118.98,7119,7119,6825.17,37036
20190331,7165.91,7166,6855,6879.62,697431
20190406,7223.17,7223,7223,6991.32,90745
20190407,7293.58,7339,6871,7004.46,14784
20190408,7041.07,7350,7041,7016.66,15517
20190409,7299.21,7299,6871,7015.72,24986
20190410,7021.36,7366,7012,7081.43,101590
20190413,7435.32,7435,7435,7111.47,23934
20190414,7466.29,7466,7466,7130.24,14773
20190415,7486.01,7486,7486,7162.16,25409
20190416,7519.80,7520,7520,7166.85,3939
20190417,7524.49,7524,7524,7171.55,3745
20190420,7530.12,7530,7530,7174.36,2291
20190422,7532.94,7533,7533,7184.69,7825
20190423,7543.27,7543,7543,7220.36,27900
20190424,7580.81,7581,7581,7237.25,13123
20190427,7598.65,7599,7599,7239.13,1322
20190428,9889.04,10383,9855,10195.05,476426
20190429,10654.06,10654,9856,10290.79,139771
20190430,10324.59,10326,9776,10179.09,69563
20190501,9677.83,10091,9670,9931.28,144181
20190504,9762.31,10325,9439,9785.78,297972
20190505,10264.51,10275,9856,9954.74,151453
20190506,9954.74,10184,9457,9852.43,184660
20190507,9373.70,10128,9373,9765.13,94506
20190508,9574.58,9894,9522,9761.38,15030
20190511,9950.05,9950,9522,9762.31,17208
20190512,9493.85,9494,9302,9711.63,37199
20190513,9377.45,9762,9368,9624.33,89191
20190514,9368.07,9575,9368,9568.95,80889
20190515,9095.85,9622,9096,9524.83,100887
20190518,9386.84,9575,9105,9487.28,46237
20190519,9105.24,9387,9058,9450.67,61330
20190520,9451.61,9664,9386,9433.77,135507
20190521,9573.64,9662,9387,9442.22,50897
20190522,9724.77,9725,9444,9463.81,111862
20190525,9386.84,9698,9387,9515.44,86389
20190526,9516.38,9893,9516,9586.78,115511
20190528,9587.72,10066,9588,9895.61,200043
20190529,10390.29,10390,10390,10390.29,1752537
20190601,10649.37,10909,9872,10721.65,1120467
20190602,10909.39,11076,10188,10656.88,779477
20190603,10230.72,10728,10125,10364.95,445478
20190608,10552.69,10883,10553,10869.96,1283507
20190609,11169.40,11413,10891,11377.79,878200
20190610,11946.63,11947,11593,11941.00,549386
20190616,12538.00,12538,11344,11366.00,442079
20190617,11920.00,11920,10798,10974.00,200559
20190618,10426.00,10800,10426,10714.00,134960
20190619,10179.00,10179,10179,10606.00,56328
20190622,10076.00,10899,10076,10320.00,152058
20190623,10380.00,10835,10050,10329.00,66074
20190624,10836.00,10836,10610,10424.00,64145
20190625,10836.00,10945,10501,10499.00,47798
20190626,10945.00,11023,10945,10935.00,233094
20190630,11249.00,11470,10501,10941.00,82488
20190701,10858.00,10858,10396,10916.00,24914
20190702,10850.00,11098,10372,10933.00,55916
20190703,10455.00,10910,10408,10849.00,72968
20190706,11300.00,11300,10401,10842.00,23446
20190707,10795.00,10880,10300,10573.00,209300
20190708,10875.00,11101,10675,11066.00,950271
20190709,11597.00,11618,11402,11567.00,1978498
20190710,11890.00,11890,10989,11109.00,268035
20190713,10610.00,11330,10600,10995.00,197723
20190714,11112.00,11498,10612,11052.00,88546
20190715,11494.00,11494,10700,11059.00,219217
20190716,11294.00,11294,10507,10951.00,62494
20190717,10404.00,11140,10404,10795.00,139595
20190720,10589.00,10919,10300,10598.00,131243
20190721,10280.00,10779,10280,10585.00,142387
20190722,10699.00,10699,10302,10555.00,40865
20190723,10100.00,10457,10057,10509.00,33796
20190724,10645.00,10645,10028,10487.00,28467
20190727,9963.00,10490,9963,10438.00,40780
20190728,9969.00,10396,9969,10312.00,87263
20190729,10387.00,10387,9910,10210.00,85471
20190730,9971.00,10199,9970,10185.00,34646
20190731,10199.00,10298,9970,10183.00,35833
20190803,10290.00,10394,10032,10202.00,82146
20190804,10298.00,10712,10298,10548.00,217309
20190805,11075.00,11075,10756,11066.00,930445
20190806,11619.00,11619,11081,11349.00,697711
20190807,11616.00,11900,11456,11622.00,989726
20190810,11960.00,12203,11960,12125.00,762203
20190811,12538.00,12731,12203,12600.00,810493
20190813,13230.00,13230,13200,13229.00,1285582
20190814,13790.00,13790.00,12600.00,13283.00,611372
